 Y Density=1., Angle=90.deg
 Photon Energy (eV), Atten Length (microns)
   1000.00  2.73231
   1006.83  2.77758
   1013.70  2.82360
   1020.62  2.87038
   1027.58  2.91793
   1034.60  2.96654
   1041.66  3.01650
   1048.77  3.06729
   1055.93  3.11700
   1063.13  3.16744
   1070.39  3.21871
   1077.70  3.27081
   1085.05  3.32376
   1092.46  3.37755
   1099.92  3.43222
   1107.42  3.48778
   1114.98  3.54424
   1122.59  3.60161
   1130.25  3.65991
   1137.97  3.71915
   1145.74  3.77934
   1153.56  3.84050
   1161.43  3.90266
   1169.36  3.96584
   1177.34  4.03003
   1185.38  4.09527
   1193.47  4.16156
   1201.61  4.22892
   1209.81  4.29737
   1218.07  4.36693
   1226.39  4.43762
   1234.76  4.50945
   1243.19  4.58244
   1251.67  4.65661
   1260.21  4.73196
   1268.82  4.80854
   1277.48  4.88636
   1286.20  4.96545
   1294.97  5.04582
   1303.81  5.12749
   1312.71  5.21049
   1321.67  5.29483
   1330.69  5.38053
   1339.78  5.46762
   1348.92  5.55613
   1358.13  5.64607
   1367.40  5.73746
   1376.73  5.83033
   1386.13  5.92470
   1395.59  6.02059
   1405.12  6.11804
   1414.71  6.21705
   1424.36  6.31768
   1434.08  6.41995
   1443.87  6.52388
   1453.73  6.62947
   1463.65  6.73677
   1473.64  6.84580
   1483.70  6.95662
   1493.83  7.06906
   1504.02  7.18129
   1514.29  7.29531
   1524.62  7.40889
   1535.03  7.52334
   1545.51  7.63957
   1556.06  7.75759
   1566.68  7.87743
   1577.37  7.99913
   1588.14  8.12271
   1598.98  8.24820
   1609.89  8.37563
   1620.88  8.50503
   1631.94  8.63645
   1643.08  8.76989
   1654.30  8.90538
   1665.59  9.04297
   1676.96  9.18268
   1688.41  9.32454
   1699.93  9.46860
   1711.53  9.61487
   1723.21  9.76340
   1734.98  9.91424
   1746.82  10.0674
   1758.74  10.2229
   1770.75  10.3809
   1782.83  10.5413
   1795.00  10.7041
   1807.25  10.8695
   1819.59  11.0375
   1832.01  11.2080
   1844.51  11.3864
   1857.10  11.5750
   1869.78  11.7673
   1882.54  11.9708
   1895.39  12.1779
   1908.33  12.3886
   1921.35  12.6029
   1934.47  12.8209
   1947.67  13.0427
   1960.97  13.2683
   1974.35  13.4979
   1987.83  13.7313
   2001.39  13.9689
   2015.06  14.2105
   2028.81  14.4563
   2042.66  14.7064
   2056.60  14.9608
   2070.64  15.2196
   2084.77  3.97918
   2099.00  4.06669
   2113.33  4.15616
   2127.75  4.24759
   2142.27  4.34100
   2156.90  3.25004
   2171.62  3.29195
   2186.44  3.33439
   2201.37  3.37737
   2216.39  3.42090
   2231.52  3.46500
   2246.75  3.50967
   2262.09  3.55492
   2277.53  3.60836
   2293.07  3.66518
   2308.72  3.72547
   2324.48  3.79083
   2340.35  3.85734
   2356.32  3.92501
   2372.40  3.98327
   2388.60  3.60437
   2404.90  3.65867
   2421.32  3.71378
   2437.84  3.76972
   2454.48  3.82651
   2471.24  3.88415
   2488.10  3.94266
   2505.09  4.00203
   2522.19  4.06230
   2539.40  4.12348
   2556.73  4.18560
   2574.18  4.24866
   2591.76  4.31265
   2609.45  4.37760
   2627.26  4.44354
   2645.19  4.51047
   2663.24  4.57841
   2681.42  4.64738
   2699.72  4.71739
   2718.15  4.78844
   2736.70  4.86056
   2755.38  4.93377
   2774.19  5.00808
   2793.13  5.08413
   2812.19  5.16780
   2831.39  5.25285
   2850.71  5.34519
   2870.17  5.44139
   2889.76  5.53931
   2909.48  5.63899
   2929.34  5.74047
   2949.34  5.84376
   2969.47  5.94891
   2989.74  6.05595
   3010.14  6.16493
   3030.69  6.27585
   3051.38  6.38879
   3072.20  6.50376
   3093.17  6.62080
   3114.29  6.73994
   3135.54  6.86123
   3156.94  6.98468
   3178.49  7.11037
   3200.19  7.23832
   3222.03  7.36858
   3244.02  7.50118
   3266.17  7.63617
   3288.46  7.77357
   3310.90  7.91346
   3333.50  8.05554
   3356.26  8.19820
   3379.17  8.34338
   3402.23  8.49043
   3425.45  8.63988
   3448.83  8.79197
   3472.37  8.94674
   3496.07  9.10424
   3519.94  9.26448
   3543.96  9.42754
   3568.15  9.59348
   3592.51  9.76235
   3617.03  9.93419
   3641.72  10.1091
   3666.57  10.2870
   3691.60  10.4681
   3716.80  10.6523
   3742.17  10.8398
   3767.71  11.0306
   3793.43  11.2258
   3819.32  11.4270
   3845.39  11.6318
   3871.63  11.8434
   3898.06  12.0592
   3924.67  12.2788
   3951.45  12.5025
   3978.43  12.7302
   4005.58  12.9621
   4032.92  13.1982
   4060.45  13.4385
   4088.16  13.6833
   4116.07  13.9325
   4144.16  14.1863
   4172.45  14.4427
   4200.93  14.6890
   4229.60  14.9395
   4258.47  15.1942
   4287.54  15.4533
   4316.80  15.7167
   4346.27  15.9847
   4375.93  16.2572
   4405.80  16.5344
   4435.87  16.8163
   4466.15  17.1031
   4496.63  17.3947
   4527.33  17.6913
   4558.23  17.9929
   4589.34  18.2997
   4620.67  18.6117
   4652.21  18.9290
   4683.96  19.2517
   4715.93  19.5800
   4748.12  19.9138
   4780.53  20.2533
   4813.16  20.5986
   4846.01  20.9499
   4879.09  21.3070
   4912.39  21.6788
   4945.92  22.0647
   4979.68  22.4592
   5013.67  22.8690
   5047.89  23.2863
   5082.34  23.7112
   5117.03  24.1439
   5151.96  24.5845
   5187.12  25.0331
   5222.53  25.4899
   5258.18  25.9550
   5294.07  26.4286
   5330.20  26.9109
   5366.58  27.4019
   5403.21  27.9019
   5440.09  28.4111
   5477.23  28.9295
   5514.61  29.4574
   5552.25  29.9948
   5590.15  30.5421
   5628.31  31.0994
   5666.72  31.6669
   5705.40  32.2447
   5744.34  32.8331
   5783.55  33.4321
   5823.03  34.0421
   5862.77  34.6633
   5902.79  35.2958
   5943.08  35.9398
   5983.65  36.5955
   6024.49  37.2632
   6065.61  37.9431
   6107.01  38.6354
   6148.69  39.3404
   6190.66  40.0581
   6232.92  40.7890
   6275.46  41.5331
   6318.29  42.2908
   6361.42  43.0625
   6404.84  43.8482
   6448.56  44.6482
   6492.57  45.4628
   6536.89  46.2924
   6581.50  47.1398
   6626.43  48.0026
   6671.66  48.8812
   6717.19  49.7759
   6763.04  50.6870
   6809.21  51.6147
   6855.68  52.5595
   6902.48  53.5215
   6949.59  54.5010
   6997.02  55.4986
   7044.78  56.5144
   7092.87  57.5488
   7141.28  58.6021
   7190.02  59.6747
   7239.10  60.7668
   7288.51  61.8790
   7338.26  63.0115
   7388.35  64.1646
   7438.78  65.3388
   7489.55  66.5346
   7540.67  67.7522
   7592.14  68.9921
   7643.96  70.2547
   7696.14  71.5403
   7748.67  72.8496
   7801.56  74.1828
   7854.81  75.5401
   7908.42  76.9224
   7962.40  78.3299
   8016.75  79.7632
   8071.47  81.2499
   8126.56  82.8034
   8182.03  84.3907
   8237.88  86.0790
   8294.10  87.8011
   8350.72  89.5576
   8407.71  91.3491
   8465.10  93.1764
   8522.88  95.0404
   8581.05  96.9417
   8639.63  98.8807
   8698.60  100.859
   8757.97  102.876
   8817.75  104.933
   8877.93  107.032
   8938.53  109.173
   8999.54  111.356
   9060.97  113.584
   9122.81  115.855
   9185.08  118.172
   9247.78  120.535
   9310.90  122.946
   9374.45  125.405
   9438.44  127.913
   9502.86  130.470
   9567.72  133.079
   9633.03  135.740
   9698.78  138.454
   9764.98  141.215
   9831.63  143.972
   9898.74  146.782
   9966.30  149.587
   10034.3  152.426
   10102.8  155.319
   10171.8  158.266
   10241.2  161.269
   10311.1  164.330
   10381.5  167.448
   10452.3  170.627
   10523.7  173.865
   10595.5  177.166
   10667.8  180.530
   10740.7  183.957
   10814.0  187.449
   10887.8  191.007
   10962.1  194.634
   11036.9  198.329
   11112.2  202.095
   11188.1  205.932
   11264.5  209.842
   11341.3  213.827
   11418.8  217.888
   11496.7  222.026
   11575.2  226.242
   11654.2  230.537
   11733.7  234.916
   11813.8  239.377
   11894.4  243.923
   11975.6  248.556
   12057.4  253.275
   12139.7  258.083
   12222.5  262.983
   12306.0  267.978
   12390.0  273.068
   12474.5  278.253
   12559.7  283.535
   12645.4  288.918
   12731.7  294.404
   12818.6  299.994
   12906.1  305.689
   12994.2  311.491
   13082.9  317.404
   13172.2  323.431
   13262.1  329.572
   13352.6  335.828
   13443.8  342.202
   13535.5  348.699
   13627.9  355.317
   13720.9  362.061
   13814.6  368.932
   13908.9  375.933
   14003.8  383.067
   14099.4  390.337
   14195.6  397.743
   14292.5  405.289
   14390.1  412.979
   14488.3  420.815
   14587.2  428.799
   14686.8  436.931
   14787.0  445.215
   14887.9  453.659
   14989.5  462.264
   15091.9  471.031
   15194.9  479.964
   15298.6  489.065
   15403.0  498.339
   15508.1  507.788
   15614.0  517.416
   15720.6  527.226
   15827.9  537.220
   15935.9  547.401
   16044.7  557.775
   16154.2  568.343
   16264.5  579.110
   16375.5  590.083
   16487.2  601.263
   16599.8  612.653
   16713.1  624.257
   16827.2  636.080
   16942.0  648.125
   17057.6  96.5986
   17174.1  98.2551
   17291.3  99.9397
   17409.3  101.655
   17528.2  103.406
   17647.8  105.187
   17768.2  107.006
   17889.5  108.858
   18011.6  110.746
   18134.6  112.671
   18258.4  114.630
   18383.0  116.632
   18508.5  118.668
   18634.8  120.746
   18762.0  122.862
   18890.0  125.020
   19019.0  127.220
   19148.8  129.459
   19279.5  131.746
   19411.1  134.074
   19543.6  136.448
   19677.0  138.867
   19811.3  141.332
   19946.5  143.847
   20082.6  146.407
   20219.7  149.021
   20357.7  151.682
   20496.7  154.396
   20636.6  157.163
   20777.4  159.981
   20919.3  162.857
   21062.1  165.784
   21205.8  168.772
   21350.6  171.816
   21496.3  174.919
   21643.0  178.082
   21790.7  181.304
   21939.5  184.592
   22089.2  187.941
   22240.0  191.358
   22391.8  194.839
   22544.6  198.387
   22698.5  202.006
   22853.4  205.691
   23009.4  209.453
   23166.5  213.283
   23324.6  217.191
   23483.8  221.173
   23644.1  225.232
   23805.5  229.372
   23968.0  233.589
   24131.6  237.893
   24296.3  242.276
   24462.1  246.746
   24629.1  251.303
   24797.2  255.947
   24966.4  260.684
   25136.9  265.509
   25308.4  270.434
   25481.2  275.451
   25655.1  280.566
   25830.2  285.782
   26006.5  291.096
   26184.0  296.519
   26362.7  302.043
   26542.7  307.678
   26723.9  313.420
   26906.3  319.276
   27089.9  325.246
   27274.8  331.330
   27461.0  337.536
   27648.4  343.858
   27837.1  350.309
   28027.1  356.884
   28218.4  363.586
   28411.1  370.421
   28605.0  377.384
   28800.2  384.492
   28996.8  391.732
   29194.7  399.118
   29394.0  406.645
   29594.6  414.318
   29796.6  422.144
   30000.0  430.118
