 Ge Density=1., Angle=90.deg
 Photon Energy (eV), Atten Length (microns)
   1000.00  5.32362
   1006.83  5.40911
   1013.70  5.49598
   1020.62  5.58308
   1027.58  5.67102
   1034.60  5.76049
   1041.66  5.85164
   1048.77  5.94423
   1055.93  6.03876
   1063.13  6.13480
   1070.39  6.23238
   1077.70  6.33152
   1085.05  6.43223
   1092.46  6.53452
   1099.92  6.63844
   1107.42  6.74401
   1114.98  6.85124
   1122.59  6.96024
   1130.25  7.07102
   1137.97  7.18356
   1145.74  7.29786
   1153.56  7.41397
   1161.43  7.53195
   1169.36  7.65182
   1177.34  7.77359
   1185.38  7.89730
   1193.47  8.02298
   1201.61  8.15065
   1209.81  8.28036
   1218.07  1.25307
   1226.39  1.26748
   1234.76  1.28204
   1243.19  1.29678
   1251.67  1.31169
   1260.21  1.32671
   1268.82  1.34191
   1277.48  1.35724
   1286.20  1.37272
   1294.97  1.38838
   1303.81  1.40421
   1312.71  1.42023
   1321.67  1.43642
   1330.69  1.45280
   1339.78  1.46937
   1348.92  1.48613
   1358.13  1.50308
   1367.40  1.52022
   1376.73  1.53757
   1386.13  1.55511
   1395.59  1.57285
   1405.12  1.59079
   1414.71  1.60890
   1424.36  1.62725
   1434.08  1.64582
   1443.87  1.66459
   1453.73  1.68424
   1463.65  1.70429
   1473.64  1.72516
   1483.70  1.74703
   1493.83  1.76962
   1504.02  1.79781
   1514.29  1.82645
   1524.62  1.85615
   1535.03  1.88657
   1545.51  1.91749
   1556.06  1.94892
   1566.68  1.98086
   1577.37  2.01332
   1588.14  2.04631
   1598.98  2.07984
   1609.89  2.11392
   1620.88  2.14856
   1631.94  2.18379
   1643.08  2.21959
   1654.30  2.25596
   1665.59  2.29292
   1676.96  2.33050
   1688.41  2.36868
   1699.93  2.40749
   1711.53  2.44694
   1723.21  2.48703
   1734.98  2.52872
   1746.82  2.57129
   1758.74  2.61477
   1770.75  2.65919
   1782.83  2.70440
   1795.00  2.75065
   1807.25  2.79769
   1819.59  2.84555
   1832.01  2.89423
   1844.51  2.94374
   1857.10  2.99410
   1869.78  3.04532
   1882.54  3.09742
   1895.39  3.15041
   1908.33  3.20427
   1921.35  3.25905
   1934.47  3.31477
   1947.67  3.37145
   1960.97  3.42910
   1974.35  3.48778
   1987.83  3.54745
   2001.39  3.60760
   2015.06  3.66842
   2028.81  3.73076
   2042.66  3.79558
   2056.60  3.86153
   2070.64  3.92883
   2084.77  3.99732
   2099.00  4.06711
   2113.33  4.13820
   2127.75  4.21056
   2142.27  4.28432
   2156.90  4.35938
   2171.62  4.43587
   2186.44  4.51373
   2201.37  4.59311
   2216.39  4.67406
   2231.52  4.75644
   2246.75  4.84037
   2262.09  4.92578
   2277.53  5.01284
   2293.07  5.10150
   2308.72  5.19181
   2324.48  5.28384
   2340.35  5.37752
   2356.32  5.47306
   2372.40  5.57029
   2388.60  5.66937
   2404.90  5.77027
   2421.32  5.87305
   2437.84  5.97789
   2454.48  6.08459
   2471.24  6.19335
   2488.10  6.30406
   2505.09  6.41683
   2522.19  6.53168
   2539.40  6.64865
   2556.73  6.76788
   2574.18  6.88926
   2591.76  7.01297
   2609.45  7.13893
   2627.26  7.26726
   2645.19  7.39801
   2663.24  7.53117
   2681.42  7.66705
   2699.72  7.80538
   2718.15  7.94624
   2736.70  8.08966
   2755.38  8.23584
   2774.19  8.38484
   2793.13  8.53656
   2812.19  8.69108
   2831.39  8.84839
   2850.71  9.00868
   2870.17  9.17192
   2889.76  9.33823
   2909.48  9.50778
   2929.34  9.68041
   2949.34  9.85651
   2969.47  10.0358
   2989.74  10.2185
   3010.14  10.4046
   3030.69  10.5942
   3051.38  10.7873
   3072.20  10.9839
   3093.17  11.1843
   3114.29  11.3885
   3135.54  11.5965
   3156.94  11.8084
   3178.49  12.0242
   3200.19  12.2442
   3222.03  12.4682
   3244.02  12.6965
   3266.17  12.9291
   3288.46  13.1660
   3310.90  13.4073
   3333.50  13.6532
   3356.26  13.9037
   3379.17  14.1589
   3402.23  14.4189
   3425.45  14.6838
   3448.83  14.9537
   3472.37  15.2287
   3496.07  15.5088
   3519.94  15.7942
   3543.96  16.0848
   3568.15  16.3810
   3592.51  16.6828
   3617.03  16.9903
   3641.72  17.3036
   3666.57  17.6227
   3691.60  17.9479
   3716.80  18.2791
   3742.17  18.6166
   3767.71  18.9604
   3793.43  19.3106
   3819.32  19.6676
   3845.39  20.0310
   3871.63  20.4016
   3898.06  20.7791
   3924.67  21.1637
   3951.45  21.5556
   3978.43  21.9548
   4005.58  22.3614
   4032.92  22.7756
   4060.45  23.1979
   4088.16  23.6281
   4116.07  24.0664
   4144.16  24.5129
   4172.45  24.9678
   4200.93  25.4314
   4229.60  25.9036
   4258.47  26.3850
   4287.54  26.8755
   4316.80  27.3750
   4346.27  27.8839
   4375.93  28.4022
   4405.80  28.9306
   4435.87  29.4688
   4466.15  30.0173
   4496.63  30.5761
   4527.33  31.1456
   4558.23  31.7262
   4589.34  32.3176
   4620.67  32.9200
   4652.21  33.5335
   4683.96  34.1589
   4715.93  34.7962
   4748.12  35.4454
   4780.53  36.1067
   4813.16  36.7802
   4846.01  37.4670
   4879.09  38.1665
   4912.39  38.8796
   4945.92  39.6063
   4979.68  40.3467
   5013.67  41.1013
   5047.89  41.8699
   5082.34  42.6530
   5117.03  43.4507
   5151.96  44.2637
   5187.12  45.0923
   5222.53  45.9365
   5258.18  46.7974
   5294.07  47.6746
   5330.20  48.5677
   5366.58  49.4774
   5403.21  50.4044
   5440.09  51.3492
   5477.23  52.3117
   5514.61  53.2938
   5552.25  54.2944
   5590.15  55.3137
   5628.31  56.3522
   5666.72  57.4103
   5705.40  58.4882
   5744.34  59.5864
   5783.55  60.7068
   5823.03  61.8483
   5862.77  63.0111
   5902.79  64.1955
   5943.08  65.4024
   5983.65  66.6333
   6024.49  67.8874
   6065.61  69.1653
   6107.01  70.4673
   6148.69  71.7945
   6190.66  73.1475
   6232.92  74.5260
   6275.46  75.9303
   6318.29  77.3611
   6361.42  78.8194
   6404.84  80.3053
   6448.56  81.8209
   6492.57  83.3676
   6536.89  84.9433
   6581.50  86.5477
   6626.43  88.1824
   6671.66  89.8473
   6717.19  91.5435
   6763.04  93.2727
   6809.21  95.0361
   6855.68  96.8328
   6902.48  98.6667
   6949.59  100.535
   6997.02  102.439
   7044.78  104.379
   7092.87  106.356
   7141.28  108.372
   7190.02  110.426
   7239.10  112.520
   7288.51  114.655
   7338.26  116.831
   7388.35  119.048
   7438.78  121.308
   7489.55  123.612
   7540.67  125.960
   7592.14  128.354
   7643.96  130.793
   7696.14  133.281
   7748.67  135.817
   7801.56  138.401
   7854.81  141.036
   7908.42  143.722
   7962.40  146.461
   8016.75  149.253
   8071.47  152.098
   8126.56  154.999
   8182.03  157.956
   8237.88  160.972
   8294.10  164.046
   8350.72  167.180
   8407.71  170.375
   8465.10  173.632
   8522.88  176.955
   8581.05  180.342
   8639.63  183.795
   8698.60  187.315
   8757.97  190.905
   8817.75  194.565
   8877.93  198.297
   8938.53  202.104
   8999.54  205.983
   9060.97  209.941
   9122.81  213.975
   9185.08  218.089
   9247.78  222.286
   9310.90  226.564
   9374.45  230.928
   9438.44  235.376
   9502.86  239.916
   9567.72  244.543
   9633.03  249.263
   9698.78  254.076
   9764.98  258.982
   9831.63  263.992
   9898.74  269.098
   9966.30  274.309
   10034.3  279.623
   10102.8  285.042
   10171.8  290.571
   10241.2  296.207
   10311.1  301.963
   10381.5  307.829
   10452.3  313.816
   10523.7  319.923
   10595.5  326.151
   10667.8  332.509
   10740.7  338.989
   10814.0  345.608
   10887.8  352.356
   10962.1  359.244
   11036.9  366.271
   11112.2  49.2438
   11188.1  50.0928
   11264.5  50.9564
   11341.3  51.8350
   11418.8  52.7288
   11496.7  53.6399
   11575.2  54.5688
   11654.2  55.5143
   11733.7  56.4797
   11813.8  57.4619
   11894.4  58.4648
   11975.6  59.4861
   12057.4  60.5269
   12139.7  61.5880
   12222.5  62.6681
   12306.0  63.7716
   12390.0  64.8946
   12474.5  66.0403
   12559.7  67.2072
   12645.4  68.3964
   12731.7  69.6096
   12818.6  70.8443
   12906.1  72.1050
   12994.2  73.3882
   13082.9  74.6973
   13172.2  76.0316
   13262.1  77.3910
   13352.6  78.7778
   13443.8  80.1895
   13535.5  81.6310
   13627.9  83.0985
   13720.9  84.5950
   13814.6  86.1203
   13908.9  87.6741
   14003.8  89.2601
   14099.4  90.8747
   14195.6  92.5223
   14292.5  94.2005
   14390.1  95.9118
   14488.3  97.6568
   14587.2  99.4341
   14686.8  101.247
   14787.0  103.094
   14887.9  104.978
   14989.5  106.898
   15091.9  108.856
   15194.9  110.852
   15298.6  112.885
   15403.0  114.960
   15508.1  117.073
   15614.0  119.229
   15720.6  121.427
   15827.9  123.666
   15935.9  125.951
   16044.7  128.277
   16154.2  130.651
   16264.5  133.069
   16375.5  135.536
   16487.2  138.051
   16599.8  140.614
   16713.1  143.229
   16827.2  145.892
   16942.0  148.610
   17057.6  151.379
   17174.1  154.203
   17291.3  157.082
   17409.3  160.016
   17528.2  163.009
   17647.8  166.058
   17768.2  169.170
   17889.5  172.341
   18011.6  175.573
   18134.6  178.870
   18258.4  182.228
   18383.0  185.656
   18508.5  189.149
   18634.8  192.711
   18762.0  196.343
   18890.0  200.045
   19019.0  203.821
   19148.8  207.669
   19279.5  211.595
   19411.1  215.596
   19543.6  219.676
   19677.0  223.835
   19811.3  228.076
   19946.5  232.401
   20082.6  236.809
   20219.7  241.307
   20357.7  245.891
   20496.7  250.566
   20636.6  255.333
   20777.4  260.192
   20919.3  265.149
   21062.1  270.200
   21205.8  275.354
   21350.6  280.607
   21496.3  285.963
   21643.0  291.425
   21790.7  296.992
   21939.5  302.673
   22089.2  308.463
   22240.0  314.369
   22391.8  320.389
   22544.6  326.528
   22698.5  332.788
   22853.4  339.169
   23009.4  345.679
   23166.5  352.313
   23324.6  359.081
   23483.8  365.982
   23644.1  373.017
   23805.5  380.192
   23968.0  387.506
   24131.6  394.968
   24296.3  402.574
   24462.1  410.331
   24629.1  418.240
   24797.2  426.304
   24966.4  434.529
   25136.9  442.911
   25308.4  451.465
   25481.2  460.184
   25655.1  469.075
   25830.2  478.142
   26006.5  487.386
   26184.0  496.817
   26362.7  506.428
   26542.7  516.233
   26723.9  526.226
   26906.3  536.418
   27089.9  546.812
   27274.8  557.407
   27461.0  568.215
   27648.4  579.231
   27837.1  590.469
   28027.1  601.926
   28218.4  613.609
   28411.1  625.521
   28605.0  637.665
   28800.2  650.055
   28996.8  662.682
   29194.7  675.563
   29394.0  688.695
   29594.6  702.084
   29796.6  715.739
   30000.0  729.657
