 Mo Density=1., Angle=90.deg
 Photon Energy (eV), Atten Length (microns)
   1000.00  1.91870
   1006.83  1.94533
   1013.70  1.97598
   1020.62  2.00712
   1027.58  2.03874
   1034.60  2.07085
   1041.66  2.10348
   1048.77  2.13664
   1055.93  2.17031
   1063.13  2.20450
   1070.39  2.23923
   1077.70  2.27451
   1085.05  2.31034
   1092.46  2.34675
   1099.92  2.38373
   1107.42  2.42129
   1114.98  2.45945
   1122.59  2.49820
   1130.25  2.53757
   1137.97  2.57756
   1145.74  2.61818
   1153.56  2.65943
   1161.43  2.70133
   1169.36  2.74389
   1177.34  2.78712
   1185.38  2.83103
   1193.47  2.87563
   1201.61  2.92094
   1209.81  2.96697
   1218.07  3.01372
   1226.39  3.06120
   1234.76  3.10943
   1243.19  3.15843
   1251.67  3.20820
   1260.21  3.25896
   1268.82  3.31157
   1277.48  3.36501
   1286.20  3.41960
   1294.97  3.47514
   1303.81  3.53157
   1312.71  3.58892
   1321.67  3.64721
   1330.69  3.70645
   1339.78  3.76665
   1348.92  3.82783
   1358.13  3.89000
   1367.40  3.95318
   1376.73  4.01739
   1386.13  4.08264
   1395.59  4.14894
   1405.12  4.21632
   1414.71  4.28480
   1424.36  4.35439
   1434.08  4.42512
   1443.87  4.49701
   1453.73  4.57006
   1463.65  4.64428
   1473.64  4.71969
   1483.70  4.79635
   1493.83  4.87426
   1504.02  4.95343
   1514.29  5.03388
   1524.62  5.11563
   1535.03  5.20034
   1545.51  5.28672
   1556.06  5.37491
   1566.68  5.46496
   1577.37  5.55652
   1588.14  5.64960
   1598.98  5.74424
   1609.89  5.84048
   1620.88  5.93832
   1631.94  6.03780
   1643.08  6.13895
   1654.30  6.24179
   1665.59  6.34637
   1676.96  6.45271
   1688.41  6.56081
   1699.93  6.67071
   1711.53  6.78246
   1723.21  6.89607
   1734.98  7.01159
   1746.82  7.12907
   1758.74  7.24851
   1770.75  7.36995
   1782.83  7.49341
   1795.00  7.61895
   1807.25  7.74661
   1819.59  7.87641
   1832.01  8.00835
   1844.51  8.14251
   1857.10  8.27892
   1869.78  8.41762
   1882.54  8.55865
   1895.39  8.70203
   1908.33  8.84781
   1921.35  8.99603
   1934.47  9.14672
   1947.67  9.30076
   1960.97  9.45827
   1974.35  9.61857
   1987.83  9.78239
   2001.39  9.94901
   2015.06  10.1184
   2028.81  10.2907
   2042.66  10.4660
   2056.60  10.6442
   2070.64  10.8256
   2084.77  11.0099
   2099.00  11.1974
   2113.33  11.3881
   2127.75  11.5820
   2142.27  11.7792
   2156.90  11.9798
   2171.62  12.1839
   2186.44  12.3914
   2201.37  12.6024
   2216.39  12.8170
   2231.52  13.0353
   2246.75  13.2573
   2262.09  13.4831
   2277.53  13.7127
   2293.07  13.9462
   2308.72  14.1837
   2324.48  14.4253
   2340.35  14.6709
   2356.32  14.9207
   2372.40  15.1749
   2388.60  15.4333
   2404.90  15.6962
   2421.32  15.9635
   2437.84  16.2353
   2454.48  16.5118
   2471.24  16.7930
   2488.10  17.0790
   2505.09  17.3698
   2522.19  5.13800
   2539.40  5.22425
   2556.73  5.31193
   2574.18  5.40109
   2591.76  5.49174
   2609.45  5.58390
   2627.26  4.13573
   2645.19  4.20371
   2663.24  4.27281
   2681.42  4.34305
   2699.72  4.41444
   2718.15  4.48700
   2736.70  4.56076
   2755.38  4.63572
   2774.19  4.71191
   2793.13  4.78936
   2812.19  4.86809
   2831.39  4.94811
   2850.71  5.02946
   2870.17  4.49771
   2889.76  4.57270
   2909.48  4.64893
   2929.34  4.72643
   2949.34  4.80524
   2969.47  4.88536
   2989.74  4.96682
   3010.14  5.04964
   3030.69  5.13382
   3051.38  5.21941
   3072.20  5.30644
   3093.17  5.39492
   3114.29  5.48487
   3135.54  5.57632
   3156.94  5.66928
   3178.49  5.76380
   3200.19  5.85990
   3222.03  5.95760
   3244.02  6.05693
   3266.17  6.15792
   3288.46  6.26095
   3310.90  6.36579
   3333.50  6.47420
   3356.26  6.58649
   3379.17  6.70074
   3402.23  6.81697
   3425.45  6.93522
   3448.83  7.05550
   3472.37  7.17787
   3496.07  7.30235
   3519.94  7.42900
   3543.96  7.55783
   3568.15  7.68892
   3592.51  7.82227
   3617.03  7.95796
   3641.72  8.09601
   3666.57  8.23645
   3691.60  8.37929
   3716.80  8.52461
   3742.17  8.67246
   3767.71  8.82287
   3793.43  8.97590
   3819.32  9.13159
   3845.39  9.28997
   3871.63  9.45110
   3898.06  9.61503
   3924.67  9.78465
   3951.45  9.95763
   3978.43  10.1349
   4005.58  10.3165
   4032.92  10.5013
   4060.45  10.6894
   4088.16  10.8809
   4116.07  11.0759
   4144.16  11.2743
   4172.45  11.4763
   4200.93  11.6819
   4229.60  11.8912
   4258.47  12.1042
   4287.54  12.3211
   4316.80  12.5418
   4346.27  12.7665
   4375.93  12.9952
   4405.80  13.2280
   4435.87  13.4650
   4466.15  13.7062
   4496.63  13.9518
   4527.33  14.2017
   4558.23  14.4562
   4589.34  14.7152
   4620.67  14.9788
   4652.21  15.2471
   4683.96  15.5202
   4715.93  15.7983
   4748.12  16.0813
   4780.53  16.3694
   4813.16  16.6637
   4846.01  16.9672
   4879.09  17.2762
   4912.39  17.5933
   4945.92  17.9167
   4979.68  18.2460
   5013.67  18.5814
   5047.89  18.9230
   5082.34  19.2708
   5117.03  19.6249
   5151.96  19.9857
   5187.12  20.3530
   5222.53  20.7271
   5258.18  21.1081
   5294.07  21.4961
   5330.20  21.8912
   5366.58  22.2935
   5403.21  22.7033
   5440.09  23.1206
   5477.23  23.5455
   5514.61  23.9783
   5552.25  24.4190
   5590.15  24.8678
   5628.31  25.3249
   5666.72  25.7903
   5705.40  26.2643
   5744.34  26.7471
   5783.55  27.2387
   5823.03  27.7394
   5862.77  28.2492
   5902.79  28.7684
   5943.08  29.2971
   5983.65  29.8355
   6024.49  30.3839
   6065.61  30.9423
   6107.01  31.5110
   6148.69  32.0901
   6190.66  32.6799
   6232.92  33.2831
   6275.46  33.9002
   6318.29  34.5296
   6361.42  35.1766
   6404.84  35.8357
   6448.56  36.5071
   6492.57  37.1911
   6536.89  37.8879
   6581.50  38.5978
   6626.43  39.3209
   6671.66  40.0576
   6717.19  40.8081
   6763.04  41.5726
   6809.21  42.3515
   6855.68  43.1450
   6902.48  43.9532
   6949.59  44.7766
   6997.02  45.6156
   7044.78  46.4703
   7092.87  47.3409
   7141.28  48.2278
   7190.02  49.1312
   7239.10  50.0516
   7288.51  50.9892
   7338.26  51.9445
   7388.35  52.9177
   7438.78  53.9090
   7489.55  54.9188
   7540.67  55.9475
   7592.14  56.9956
   7643.96  58.0632
   7696.14  59.1510
   7748.67  60.2591
   7801.56  61.3879
   7854.81  62.5377
   7908.42  63.7091
   7962.40  64.9025
   8016.75  66.1182
   8071.47  67.3567
   8126.56  68.6183
   8182.03  69.9036
   8237.88  71.2130
   8294.10  72.5469
   8350.72  73.9057
   8407.71  75.2900
   8465.10  76.7000
   8522.88  78.1367
   8581.05  79.6002
   8639.63  81.0911
   8698.60  82.6099
   8757.97  84.1570
   8817.75  85.7330
   8877.93  87.3385
   8938.53  88.9741
   8999.54  90.6429
   9060.97  92.3518
   9122.81  94.0929
   9185.08  95.8691
   9247.78  97.6791
   9310.90  99.5234
   9374.45  101.402
   9438.44  103.317
   9502.86  105.268
   9567.72  107.255
   9633.03  109.280
   9698.78  111.343
   9764.98  113.446
   9831.63  115.590
   9898.74  117.774
   9966.30  120.000
   10034.3  122.269
   10102.8  124.580
   10171.8  126.936
   10241.2  129.336
   10311.1  131.781
   10381.5  134.272
   10452.3  136.812
   10523.7  139.400
   10595.5  142.038
   10667.8  144.726
   10740.7  147.464
   10814.0  150.255
   10887.8  153.098
   10962.1  155.996
   11036.9  158.949
   11112.2  161.958
   11188.1  165.025
   11264.5  168.150
   11341.3  171.335
   11418.8  174.580
   11496.7  177.887
   11575.2  181.256
   11654.2  184.689
   11733.7  188.187
   11813.8  191.752
   11894.4  195.385
   11975.6  199.087
   12057.4  202.860
   12139.7  206.704
   12222.5  210.621
   12306.0  214.613
   12390.0  218.681
   12474.5  222.826
   12559.7  227.050
   12645.4  231.353
   12731.7  235.738
   12818.6  240.207
   12906.1  244.762
   12994.2  249.403
   13082.9  254.131
   13172.2  258.950
   13262.1  263.861
   13352.6  268.865
   13443.8  273.964
   13535.5  279.160
   13627.9  284.453
   13720.9  289.847
   13814.6  295.343
   13908.9  300.945
   14003.8  306.655
   14099.4  312.472
   14195.6  318.397
   14292.5  324.434
   14390.1  330.589
   14488.3  336.860
   14587.2  343.250
   14686.8  349.761
   14787.0  356.394
   14887.9  363.155
   14989.5  370.043
   15091.9  377.064
   15194.9  384.219
   15298.6  391.509
   15403.0  398.936
   15508.1  406.503
   15614.0  414.218
   15720.6  422.078
   15827.9  430.086
   15935.9  438.244
   16044.7  446.558
   16154.2  455.032
   16264.5  463.666
   16375.5  472.465
   16487.2  481.429
   16599.8  490.563
   16713.1  499.871
   16827.2  509.355
   16942.0  519.019
   17057.6  528.866
   17174.1  538.899
   17291.3  549.121
   17409.3  559.539
   17528.2  570.157
   17647.8  580.975
   17768.2  591.999
   17889.5  603.230
   18011.6  614.673
   18134.6  626.332
   18258.4  638.213
   18383.0  650.321
   18508.5  662.658
   18634.8  675.231
   18762.0  688.041
   18890.0  701.095
   19019.0  714.395
   19148.8  727.946
   19279.5  741.752
   19411.1  755.818
   19543.6  770.156
   19677.0  784.764
   19811.3  799.645
   19946.5  814.805
   20082.6  123.905
   20219.7  126.089
   20357.7  128.312
   20496.7  130.581
   20636.6  132.892
   20777.4  135.248
   20919.3  137.649
   21062.1  140.094
   21205.8  142.590
   21350.6  145.130
   21496.3  147.721
   21643.0  150.360
   21790.7  153.051
   21939.5  155.793
   22089.2  158.587
   22240.0  161.437
   22391.8  164.339
   22544.6  167.299
   22698.5  170.315
   22853.4  173.388
   23009.4  176.521
   23166.5  179.712
   23324.6  182.969
   23483.8  186.285
   23644.1  189.667
   23805.5  193.113
   23968.0  196.624
   24131.6  200.205
   24296.3  203.852
   24462.1  207.574
   24629.1  211.363
   24797.2  215.228
   24966.4  219.167
   25136.9  223.181
   25308.4  227.274
   25481.2  231.442
   25655.1  235.695
   25830.2  240.027
   26006.5  244.444
   26184.0  248.947
   26362.7  253.534
   26542.7  258.213
   26723.9  262.977
   26906.3  267.839
   27089.9  272.792
   27274.8  277.842
   27461.0  282.990
   27648.4  288.235
   27837.1  293.584
   28027.1  299.033
   28218.4  304.591
   28411.1  310.255
   28605.0  316.028
   28800.2  321.915
   28996.8  327.910
   29194.7  334.029
   29394.0  340.261
   29594.6  346.616
   29796.6  353.094
   30000.0  359.692
