 O Density=1., Angle=90.deg
 Photon Energy (eV), Atten Length (microns)
   1000.00  2.16662
   1006.83  2.20596
   1013.70  2.24602
   1020.62  2.28649
   1027.58  2.32754
   1034.60  2.36944
   1041.66  2.41233
   1048.77  2.45600
   1055.93  2.50084
   1063.13  2.54652
   1070.39  2.59305
   1077.70  2.64043
   1085.05  2.68868
   1092.46  2.73780
   1099.92  2.78783
   1107.42  2.83878
   1114.98  2.89066
   1122.59  2.94348
   1130.25  2.99725
   1137.97  3.05200
   1145.74  3.10775
   1153.56  3.16452
   1161.43  3.22234
   1169.36  3.28123
   1177.34  3.34120
   1185.38  3.40226
   1193.47  3.46444
   1201.61  3.52775
   1209.81  3.59222
   1218.07  3.65787
   1226.39  3.72471
   1234.76  3.79290
   1243.19  3.86251
   1251.67  3.93341
   1260.21  4.00596
   1268.82  4.07986
   1277.48  4.15546
   1286.20  4.23265
   1294.97  4.31127
   1303.81  4.39134
   1312.71  4.47290
   1321.67  4.55596
   1330.69  4.64056
   1339.78  4.72674
   1348.92  4.81452
   1358.13  4.90393
   1367.40  4.99496
   1376.73  5.08768
   1386.13  5.18213
   1395.59  5.27835
   1405.12  5.37638
   1414.71  5.47625
   1424.36  5.57798
   1434.08  5.68154
   1443.87  5.78702
   1453.73  5.89463
   1463.65  6.00430
   1473.64  6.11619
   1483.70  6.23043
   1493.83  6.34692
   1504.02  6.46706
   1514.29  6.58947
   1524.62  6.71434
   1535.03  6.84161
   1545.51  6.97127
   1556.06  7.10330
   1566.68  7.23783
   1577.37  7.37508
   1588.14  7.51492
   1598.98  7.65742
   1609.89  7.80261
   1620.88  7.95054
   1631.94  8.10124
   1643.08  8.25479
   1654.30  8.41132
   1665.59  8.57083
   1676.96  8.73337
   1688.41  8.89899
   1699.93  9.06776
   1711.53  9.23974
   1723.21  9.41497
   1734.98  9.59473
   1746.82  9.77814
   1758.74  9.96529
   1770.75  10.1563
   1782.83  10.3510
   1795.00  10.5498
   1807.25  10.7524
   1819.59  10.9590
   1832.01  11.1695
   1844.51  11.3841
   1857.10  11.6027
   1869.78  11.8256
   1882.54  12.0527
   1895.39  12.2843
   1908.33  12.5202
   1921.35  12.7607
   1934.47  13.0058
   1947.67  13.2557
   1960.97  13.5103
   1974.35  13.7698
   1987.83  14.0343
   2001.39  14.3025
   2015.06  14.5749
   2028.81  14.8536
   2042.66  15.1403
   2056.60  15.4327
   2070.64  15.7311
   2084.77  16.0353
   2099.00  16.3456
   2113.33  16.6621
   2127.75  16.9848
   2142.27  17.3139
   2156.90  17.6494
   2171.62  17.9918
   2186.44  18.3409
   2201.37  18.6969
   2216.39  19.0602
   2231.52  19.4305
   2246.75  19.8084
   2262.09  20.1936
   2277.53  20.5867
   2293.07  20.9876
   2308.72  21.3965
   2324.48  21.8137
   2340.35  22.2390
   2356.32  22.6730
   2372.40  23.1155
   2388.60  23.5670
   2404.90  24.0275
   2421.32  24.4973
   2437.84  24.9767
   2454.48  25.4654
   2471.24  25.9640
   2488.10  26.4723
   2505.09  26.9913
   2522.19  27.5209
   2539.40  28.0610
   2556.73  28.6120
   2574.18  29.1739
   2591.76  29.7475
   2609.45  30.3324
   2627.26  30.9291
   2645.19  31.5380
   2663.24  32.1590
   2681.42  32.7931
   2699.72  33.4397
   2718.15  34.0998
   2736.70  34.7731
   2755.38  35.4600
   2774.19  36.1608
   2793.13  36.8757
   2812.19  37.6055
   2831.39  38.3497
   2850.71  39.1096
   2870.17  39.8851
   2889.76  40.6764
   2909.48  41.4843
   2929.34  42.3083
   2949.34  43.1499
   2969.47  44.0083
   2989.74  44.8842
   3010.14  45.7776
   3030.69  46.6893
   3051.38  47.6208
   3072.20  48.5708
   3093.17  49.5414
   3114.29  50.5316
   3135.54  51.5425
   3156.94  52.5742
   3178.49  53.6271
   3200.19  54.7026
   3222.03  55.7996
   3244.02  56.9200
   3266.17  58.0631
   3288.46  59.2303
   3310.90  60.4225
   3333.50  61.6388
   3356.26  62.8807
   3379.17  64.1477
   3402.23  65.4423
   3425.45  66.7636
   3448.83  68.1129
   3472.37  69.4912
   3496.07  70.8975
   3519.94  72.3353
   3543.96  73.8021
   3568.15  75.3010
   3592.51  76.8314
   3617.03  78.3946
   3641.72  79.9931
   3666.57  81.6242
   3691.60  83.2902
   3716.80  84.9903
   3742.17  86.7272
   3767.71  88.5008
   3793.43  90.3123
   3819.32  92.1652
   3845.39  94.0558
   3871.63  95.9889
   3898.06  97.9619
   3924.67  99.9786
   3951.45  102.039
   3978.43  104.144
   4005.58  106.300
   4032.92  108.501
   4060.45  110.746
   4088.16  113.037
   4116.07  115.376
   4144.16  117.765
   4172.45  120.204
   4200.93  122.694
   4229.60  125.236
   4258.47  127.833
   4287.54  130.485
   4316.80  133.192
   4346.27  135.956
   4375.93  138.778
   4405.80  141.662
   4435.87  144.605
   4466.15  147.611
   4496.63  150.681
   4527.33  153.815
   4558.23  157.015
   4589.34  160.282
   4620.67  163.621
   4652.21  167.029
   4683.96  170.509
   4715.93  174.064
   4748.12  177.693
   4780.53  181.401
   4813.16  185.186
   4846.01  189.053
   4879.09  193.000
   4912.39  197.031
   4945.92  201.149
   4979.68  205.352
   5013.67  209.648
   5047.89  214.034
   5082.34  218.514
   5117.03  223.089
   5151.96  227.761
   5187.12  232.531
   5222.53  237.402
   5258.18  242.380
   5294.07  247.462
   5330.20  252.654
   5366.58  257.955
   5403.21  263.370
   5440.09  268.902
   5477.23  274.549
   5514.61  280.319
   5552.25  286.210
   5590.15  292.227
   5628.31  298.371
   5666.72  304.646
   5705.40  311.056
   5744.34  317.602
   5783.55  324.291
   5823.03  331.121
   5862.77  338.098
   5902.79  345.224
   5943.08  352.501
   5983.65  359.938
   6024.49  367.533
   6065.61  375.288
   6107.01  383.207
   6148.69  391.299
   6190.66  399.567
   6232.92  408.010
   6275.46  416.632
   6318.29  425.435
   6361.42  434.432
   6404.84  443.620
   6448.56  453.005
   6492.57  462.594
   6536.89  472.387
   6581.50  482.396
   6626.43  492.616
   6671.66  503.054
   6717.19  513.714
   6763.04  524.601
   6809.21  535.721
   6855.68  547.075
   6902.48  558.683
   6949.59  570.533
   6997.02  582.641
   7044.78  595.006
   7092.87  607.637
   7141.28  620.544
   7190.02  633.723
   7239.10  647.188
   7288.51  660.939
   7338.26  674.981
   7388.35  689.320
   7438.78  703.967
   7489.55  718.946
   7540.67  734.240
   7592.14  749.859
   7643.96  765.807
   7696.14  782.103
   7748.67  798.755
   7801.56  815.759
   7854.81  833.128
   7908.42  850.863
   7962.40  868.968
   8016.75  887.455
   8071.47  906.352
   8126.56  925.667
   8182.03  945.391
   8237.88  965.549
   8294.10  986.130
   8350.72  1007.16
   8407.71  1028.64
   8465.10  1050.57
   8522.88  1072.97
   8581.05  1095.85
   8639.63  1119.22
   8698.60  1143.09
   8757.97  1167.47
   8817.75  1192.37
   8877.93  1217.80
   8938.53  1243.77
   8999.54  1270.30
   9060.97  1297.39
   9122.81  1325.06
   9185.08  1353.31
   9247.78  1382.17
   9310.90  1411.64
   9374.45  1441.75
   9438.44  1472.48
   9502.86  1503.87
   9567.72  1535.92
   9633.03  1568.66
   9698.78  1602.09
   9764.98  1636.21
   9831.63  1671.07
   9898.74  1706.64
   9966.30  1742.99
   10034.3  1780.12
   10102.8  1818.04
   10171.8  1856.77
   10241.2  1896.30
   10311.1  1936.69
   10381.5  1977.91
   10452.3  2020.00
   10523.7  2062.97
   10595.5  2106.84
   10667.8  2151.64
   10740.7  2197.36
   10814.0  2244.06
   10887.8  2291.71
   10962.1  2340.36
   11036.9  2390.03
   11112.2  2440.72
   11188.1  2492.49
   11264.5  2545.31
   11341.3  2599.24
   11418.8  2654.27
   11496.7  2710.44
   11575.2  2767.76
   11654.2  2826.25
   11733.7  2885.96
   11813.8  2946.86
   11894.4  3009.04
   11975.6  3072.48
   12057.4  3137.20
   12139.7  3203.22
   12222.5  3270.57
   12306.0  3339.34
   12390.0  3409.48
   12474.5  3481.02
   12559.7  3553.98
   12645.4  3628.39
   12731.7  3704.32
   12818.6  3781.73
   12906.1  3860.69
   12994.2  3941.17
   13082.9  4023.29
   13172.2  4107.05
   13262.1  4192.44
   13352.6  4279.48
   13443.8  4368.19
   13535.5  4458.67
   13627.9  4550.87
   13720.9  4644.86
   13814.6  4740.63
   13908.9  4838.23
   14003.8  4937.74
   14099.4  5039.11
   14195.6  5142.40
   14292.5  5247.61
   14390.1  5354.81
   14488.3  5464.04
   14587.2  5575.26
   14686.8  5688.52
   14787.0  5803.81
   14887.9  5921.28
   14989.5  6040.88
   15091.9  6162.94
   15194.9  6287.25
   15298.6  6413.78
   15403.0  6542.62
   15508.1  6673.74
   15614.0  6807.21
   15720.6  6943.02
   15827.9  7081.21
   15935.9  7221.79
   16044.7  7364.79
   16154.2  7510.27
   16264.5  7658.20
   16375.5  7808.67
   16487.2  7961.69
   16599.8  8117.23
   16713.1  8275.38
   16827.2  8436.10
   16942.0  8599.47
   17057.6  8765.48
   17174.1  8934.14
   17291.3  9105.47
   17409.3  9279.50
   17528.2  9456.22
   17647.8  9635.66
   17768.2  9817.89
   17889.5  10002.9
   18011.6  10190.6
   18134.6  10381.1
   18258.4  10574.4
   18383.0  10770.5
   18508.5  10969.4
   18634.8  11171.1
   18762.0  11375.6
   18890.0  11583.0
   19019.0  11793.1
   19148.8  12006.1
   19279.5  12221.8
   19411.1  12440.4
   19543.6  12661.7
   19677.0  12885.9
   19811.3  13112.5
   19946.5  13341.3
   20082.6  13573.8
   20219.7  13810.6
   20357.7  14050.4
   20496.7  14293.0
   20636.6  14538.5
   20777.4  14786.8
   20919.3  15037.8
   21062.1  15291.7
   21205.8  15548.3
   21350.6  15807.7
   21496.3  16069.8
   21643.0  16334.7
   21790.7  16602.2
   21939.5  16872.3
   22089.2  17145.2
   22240.0  17420.6
   22391.8  17698.5
   22544.6  17979.0
   22698.5  18262.0
   22853.4  18547.4
   23009.4  18835.2
   23166.5  19125.3
   23324.6  19417.8
   23483.8  19712.5
   23644.1  20009.4
   23805.5  20308.5
   23968.0  20609.7
   24131.6  20913.0
   24296.3  21218.2
   24462.1  21525.3
   24629.1  21834.3
   24797.2  22145.1
   24966.4  22457.7
   25136.9  22771.9
   25308.4  23087.7
   25481.2  23405.1
   25655.1  23723.8
   25830.2  24044.0
   26006.5  24365.5
   26184.0  24688.3
   26362.7  25012.2
   26542.7  25337.1
   26723.9  25663.0
   26906.3  25989.8
   27089.9  26317.4
   27274.8  26645.8
   27461.0  26974.8
   27648.4  27304.4
   27837.1  27634.4
   28027.1  27964.9
   28218.4  28295.6
   28411.1  28626.5
   28605.0  28957.5
   28800.2  29288.6
   28996.8  29619.7
   29194.7  29950.5
   29394.0  30281.2
   29594.6  30611.5
   29796.6  30941.4
   30000.0  31270.7
