 Ti Density=1., Angle=90.deg
 Photon Energy (eV), Atten Length (microns)
   1000.00  1.72728
   1006.83  1.75644
   1013.70  1.78610
   1020.62  1.81615
   1027.58  1.84666
   1034.60  1.87777
   1041.66  1.90960
   1048.77  1.94198
   1055.93  1.97522
   1063.13  2.00905
   1070.39  2.04344
   1077.70  2.07842
   1085.05  2.11399
   1092.46  2.15018
   1099.92  2.18699
   1107.42  2.22443
   1114.98  2.26251
   1122.59  2.30125
   1130.25  2.34064
   1137.97  2.38070
   1145.74  2.42147
   1153.56  2.46293
   1161.43  2.50508
   1169.36  2.54795
   1177.34  2.59156
   1185.38  2.63594
   1193.47  2.68108
   1201.61  2.72697
   1209.81  2.77364
   1218.07  2.82112
   1226.39  2.86943
   1234.76  2.91867
   1243.19  2.96895
   1251.67  3.02010
   1260.21  3.07247
   1268.82  3.12574
   1277.48  3.18023
   1286.20  3.23582
   1294.97  3.29239
   1303.81  3.34994
   1312.71  3.40850
   1321.67  3.46809
   1330.69  3.52871
   1339.78  3.59041
   1348.92  3.65320
   1358.13  3.71709
   1367.40  3.78207
   1376.73  3.84818
   1386.13  3.91546
   1395.59  3.98392
   1405.12  4.05358
   1414.71  4.12446
   1424.36  4.19658
   1434.08  4.26995
   1443.87  4.34460
   1453.73  4.42071
   1463.65  4.49821
   1473.64  4.57722
   1483.70  4.65784
   1493.83  4.73997
   1504.02  4.82517
   1514.29  4.91190
   1524.62  5.00033
   1535.03  5.09041
   1545.51  5.18212
   1556.06  5.27550
   1566.68  5.37055
   1577.37  5.46729
   1588.14  5.56577
   1598.98  5.66604
   1609.89  5.76814
   1620.88  5.87206
   1631.94  5.97787
   1643.08  6.08558
   1654.30  6.19517
   1665.59  6.30673
   1676.96  6.42031
   1688.41  6.53595
   1699.93  6.65369
   1711.53  6.77364
   1723.21  6.89574
   1734.98  7.02082
   1746.82  7.14832
   1758.74  7.27830
   1770.75  7.41083
   1782.83  7.54578
   1795.00  7.68333
   1807.25  7.82338
   1819.59  7.96603
   1832.01  8.11129
   1844.51  8.25921
   1857.10  8.40985
   1869.78  8.56324
   1882.54  8.71950
   1895.39  8.87860
   1908.33  9.04057
   1921.35  9.20548
   1934.47  9.37340
   1947.67  9.54440
   1960.97  9.71852
   1974.35  9.89581
   1987.83  10.0763
   2001.39  10.2599
   2015.06  10.4452
   2028.81  10.6344
   2042.66  10.8293
   2056.60  11.0277
   2070.64  11.2298
   2084.77  11.4357
   2099.00  11.6455
   2113.33  11.8592
   2127.75  12.0769
   2142.27  12.2986
   2156.90  12.5246
   2171.62  12.7547
   2186.44  12.9890
   2201.37  13.2278
   2216.39  13.4711
   2231.52  13.7188
   2246.75  13.9711
   2262.09  14.2283
   2277.53  14.4902
   2293.07  14.7571
   2308.72  15.0288
   2324.48  15.3057
   2340.35  15.5878
   2356.32  15.8751
   2372.40  16.1677
   2388.60  16.4660
   2404.90  16.7697
   2421.32  17.0791
   2437.84  17.3943
   2454.48  17.7153
   2471.24  18.0424
   2488.10  18.3758
   2505.09  18.7152
   2522.19  19.0610
   2539.40  19.4132
   2556.73  19.7719
   2574.18  20.1375
   2591.76  20.5100
   2609.45  20.8894
   2627.26  21.2758
   2645.19  21.6693
   2663.24  22.0702
   2681.42  22.4789
   2699.72  22.8952
   2718.15  23.3190
   2736.70  23.7509
   2755.38  24.1908
   2774.19  24.6391
   2793.13  25.0959
   2812.19  25.5611
   2831.39  26.0350
   2850.71  26.5176
   2870.17  27.0091
   2889.76  27.5102
   2909.48  28.0209
   2929.34  28.5410
   2949.34  29.0706
   2969.47  29.6100
   2989.74  30.1595
   3010.14  30.7197
   3030.69  31.2903
   3051.38  31.8714
   3072.20  32.4634
   3093.17  33.0665
   3114.29  33.6811
   3135.54  34.3075
   3156.94  34.9455
   3178.49  35.5955
   3200.19  36.2575
   3222.03  36.9319
   3244.02  37.6191
   3266.17  38.3192
   3288.46  39.0320
   3310.90  39.7579
   3333.50  40.4982
   3356.26  41.2525
   3379.17  42.0207
   3402.23  42.8031
   3425.45  43.6003
   3448.83  44.4124
   3472.37  45.2407
   3496.07  46.0844
   3519.94  46.9432
   3543.96  47.8180
   3568.15  48.7099
   3592.51  49.6184
   3617.03  50.5439
   3641.72  51.4873
   3666.57  52.4492
   3691.60  53.4288
   3716.80  54.4264
   3742.17  55.4421
   3767.71  56.4763
   3793.43  57.5316
   3819.32  58.6077
   3845.39  59.7030
   3871.63  60.8185
   3898.06  61.9542
   3924.67  63.1110
   3951.45  64.2914
   3978.43  65.4941
   4005.58  66.7203
   4032.92  67.9695
   4060.45  69.2421
   4088.16  70.5381
   4116.07  71.8569
   4144.16  73.2015
   4172.45  74.5752
   4200.93  75.9740
   4229.60  77.3979
   4258.47  78.8476
   4287.54  80.3233
   4316.80  81.8290
   4346.27  83.3651
   4375.93  84.9302
   4405.80  86.5246
   4435.87  88.1482
   4466.15  89.8020
   4496.63  91.4869
   4527.33  93.2036
   4558.23  94.9559
   4589.34  96.7414
   4620.67  98.5611
   4652.21  100.415
   4683.96  102.304
   4715.93  104.229
   4748.12  106.190
   4780.53  108.189
   4813.16  110.226
   4846.01  112.302
   4879.09  114.418
   4912.39  116.574
   4945.92  118.772
   4979.68  14.0870
   5013.67  14.3234
   5047.89  14.5636
   5082.34  14.8079
   5117.03  15.0572
   5151.96  15.3110
   5187.12  15.5701
   5222.53  15.8337
   5258.18  16.1029
   5294.07  16.3769
   5330.20  16.6565
   5366.58  16.9411
   5403.21  17.2315
   5440.09  17.5271
   5477.23  17.8289
   5514.61  18.1362
   5552.25  18.4497
   5590.15  18.7691
   5628.31  19.0947
   5666.72  19.4266
   5705.40  19.7650
   5744.34  20.1099
   5783.55  20.4612
   5823.03  20.8195
   5862.77  21.1845
   5902.79  21.5569
   5943.08  21.9363
   5983.65  22.3234
   6024.49  22.7175
   6065.61  23.1197
   6107.01  23.5292
   6148.69  23.9472
   6190.66  24.3728
   6232.92  24.8070
   6275.46  25.2492
   6318.29  25.7005
   6361.42  26.1602
   6404.84  26.6294
   6448.56  27.1073
   6492.57  27.5946
   6536.89  28.0912
   6581.50  28.5975
   6626.43  29.1135
   6671.66  29.6393
   6717.19  30.1757
   6763.04  30.7225
   6809.21  31.2804
   6855.68  31.8489
   6902.48  32.4287
   6949.59  33.0191
   6997.02  33.6214
   7044.78  34.2349
   7092.87  34.8613
   7141.28  35.4994
   7190.02  36.1503
   7239.10  36.8134
   7288.51  37.4900
   7338.26  38.1797
   7388.35  38.8832
   7438.78  39.6002
   7489.55  40.3312
   7540.67  41.0765
   7592.14  41.8367
   7643.96  42.6117
   7696.14  43.4015
   7748.67  44.2070
   7801.56  45.0279
   7854.81  45.8655
   7908.42  46.7191
   7962.40  47.5894
   8016.75  48.4760
   8071.47  49.3818
   8126.56  50.3045
   8182.03  51.2462
   8237.88  52.2058
   8294.10  53.1850
   8350.72  54.1828
   8407.71  55.2007
   8465.10  56.2381
   8522.88  57.2961
   8581.05  58.3745
   8639.63  59.4741
   8698.60  60.5959
   8757.97  61.7404
   8817.75  62.9062
   8877.93  64.0942
   8938.53  65.3078
   8999.54  66.5460
   9060.97  67.8078
   9122.81  69.0935
   9185.08  70.4055
   9247.78  71.7428
   9310.90  73.1059
   9374.45  74.4951
   9438.44  75.9160
   9502.86  77.3641
   9567.72  78.8402
   9633.03  80.3448
   9698.78  81.8791
   9764.98  83.4438
   9831.63  85.0405
   9898.74  86.6676
   9966.30  88.3286
   10034.3  90.0215
   10102.8  91.7488
   10171.8  93.5103
   10241.2  95.3063
   10311.1  97.1387
   10381.5  99.0060
   10452.3  100.912
   10523.7  102.856
   10595.5  104.838
   10667.8  106.860
   10740.7  108.921
   10814.0  111.024
   10887.8  113.169
   10962.1  115.357
   11036.9  117.589
   11112.2  119.864
   11188.1  122.185
   11264.5  124.552
   11341.3  126.968
   11418.8  129.431
   11496.7  131.944
   11575.2  134.506
   11654.2  137.119
   11733.7  139.785
   11813.8  142.502
   11894.4  145.277
   11975.6  148.106
   12057.4  150.992
   12139.7  153.936
   12222.5  156.938
   12306.0  160.001
   12390.0  163.123
   12474.5  166.310
   12559.7  169.559
   12645.4  172.874
   12731.7  176.256
   12818.6  179.705
   12906.1  183.224
   12994.2  186.812
   13082.9  190.474
   13172.2  194.209
   13262.1  198.019
   13352.6  201.904
   13443.8  205.867
   13535.5  209.911
   13627.9  214.035
   13720.9  218.243
   13814.6  222.535
   13908.9  226.914
   14003.8  231.380
   14099.4  235.935
   14195.6  240.583
   14292.5  245.323
   14390.1  250.160
   14488.3  255.094
   14587.2  260.126
   14686.8  265.260
   14787.0  270.494
   14887.9  275.839
   14989.5  281.289
   15091.9  286.849
   15194.9  292.520
   15298.6  298.305
   15403.0  304.209
   15508.1  310.230
   15614.0  316.373
   15720.6  322.638
   15827.9  329.030
   15935.9  335.552
   16044.7  342.204
   16154.2  348.993
   16264.5  355.915
   16375.5  362.978
   16487.2  370.182
   16599.8  377.531
   16713.1  385.032
   16827.2  392.681
   16942.0  400.485
   17057.6  408.443
   17174.1  416.566
   17291.3  424.850
   17409.3  433.303
   17528.2  441.928
   17647.8  450.724
   17768.2  459.697
   17889.5  468.849
   18011.6  478.188
   18134.6  487.715
   18258.4  497.434
   18383.0  507.351
   18508.5  517.463
   18634.8  527.783
   18762.0  538.309
   18890.0  549.047
   19019.0  560.000
   19148.8  571.173
   19279.5  582.576
   19411.1  594.205
   19543.6  606.069
   19677.0  618.169
   19811.3  630.516
   19946.5  643.112
   20082.6  655.962
   20219.7  669.074
   20357.7  682.447
   20496.7  696.092
   20636.6  710.008
   20777.4  724.207
   20919.3  738.696
   21062.1  753.470
   21205.8  768.546
   21350.6  783.920
   21496.3  799.608
   21643.0  815.609
   21790.7  831.931
   21939.5  848.580
   22089.2  865.560
   22240.0  882.889
   22391.8  900.561
   22544.6  918.590
   22698.5  936.979
   22853.4  955.734
   23009.4  974.874
   23166.5  994.391
   23324.6  1014.31
   23483.8  1034.61
   23644.1  1055.33
   23805.5  1076.45
   23968.0  1098.00
   24131.6  1119.99
   24296.3  1142.41
   24462.1  1165.29
   24629.1  1188.61
   24797.2  1212.41
   24966.4  1236.68
   25136.9  1261.43
   25308.4  1286.68
   25481.2  1312.43
   25655.1  1338.69
   25830.2  1365.47
   26006.5  1392.79
   26184.0  1420.66
   26362.7  1449.07
   26542.7  1478.05
   26723.9  1507.59
   26906.3  1537.73
   27089.9  1568.46
   27274.8  1599.81
   27461.0  1631.77
   27648.4  1664.37
   27837.1  1697.61
   28027.1  1731.50
   28218.4  1766.06
   28411.1  1801.31
   28605.0  1837.25
   28800.2  1873.89
   28996.8  1911.24
   29194.7  1949.34
   29394.0  1988.18
   29594.6  2027.78
   29796.6  2068.17
   30000.0  2109.33
