  Al Density=1., Angle=90.deg
 Photon Energy (eV), Atten Length (microns)
   1000.00  6.24004
   1006.83  6.36542
   1013.70  6.49337
   1020.62  6.62392
   1027.58  6.75712
   1034.60  6.89300
   1041.66  7.03157
   1048.77  7.17291
   1055.93  7.31713
   1063.13  7.46428
   1070.39  7.61437
   1077.70  7.76746
   1085.05  7.92362
   1092.46  8.07470
   1099.92  8.22796
   1107.42  8.38036
   1114.98  8.53261
   1122.59  8.68766
   1130.25  8.84566
   1137.97  9.00654
   1145.74  9.17037
   1153.56  9.33720
   1161.43  9.50704
   1169.36  9.67996
   1177.34  9.85604
   1185.38  10.0354
   1193.47  10.2180
   1201.61  10.4043
   1209.81  10.5940
   1218.07  10.7873
   1226.39  10.9843
   1234.76  11.1848
   1243.19  11.3891
   1251.67  11.5971
   1260.21  11.8088
   1268.82  12.0244
   1277.48  12.2439
   1286.20  12.4675
   1294.97  12.6952
   1303.81  12.9284
   1312.71  13.1660
   1321.67  13.4079
   1330.69  13.6543
   1339.78  13.9054
   1348.92  14.1612
   1358.13  14.4216
   1367.40  14.6868
   1376.73  14.9569
   1386.13  15.2323
   1395.59  15.5131
   1405.12  15.7992
   1414.71  16.0911
   1424.36  16.3883
   1434.08  16.6914
   1443.87  17.0002
   1453.73  17.3148
   1463.65  17.6351
   1473.64  17.9614
   1483.70  18.2940
   1493.83  18.6327
   1504.02  18.9854
   1514.29  19.3475
   1524.62  19.7169
   1535.03  20.0938
   1545.51  20.4779
   1556.06  20.8701
   1566.68  21.2698
   1577.37  21.6770
   1588.14  22.0920
   1598.98  22.5149
   1609.89  22.9460
   1620.88  23.3853
   1631.94  23.8332
   1643.08  24.2897
   1654.30  24.7549
   1665.59  25.2289
   1676.96  25.7120
   1688.41  26.2044
   1699.93  26.7061
   1711.53  27.2175
   1723.21  27.7386
   1734.98  28.2779
   1746.82  28.8354
   1758.74  29.4045
   1770.75  29.9875
   1782.83  30.5821
   1795.00  31.1912
   1807.25  31.8131
   1819.59  32.4474
   1832.01  33.0943
   1844.51  2.97352
   1857.10  3.02230
   1869.78  3.07188
   1882.54  3.12228
   1895.39  3.17350
   1908.33  3.22558
   1921.35  3.27851
   1934.47  3.33232
   1947.67  3.38702
   1960.97  3.44262
   1974.35  3.49913
   1987.83  3.55664
   2001.39  3.61525
   2015.06  3.67482
   2028.81  3.73562
   2042.66  3.79743
   2056.60  3.86031
   2070.64  3.92427
   2084.77  3.98965
   2099.00  4.05720
   2113.33  4.12589
   2127.75  4.19600
   2142.27  4.26732
   2156.90  4.34005
   2171.62  4.41419
   2186.44  4.48968
   2201.37  4.56687
   2216.39  4.64538
   2231.52  4.72542
   2246.75  4.80689
   2262.09  4.88997
   2277.53  4.97472
   2293.07  5.06099
   2308.72  5.14914
   2324.48  5.23882
   2340.35  5.33029
   2356.32  5.42342
   2372.40  5.51839
   2388.60  5.61538
   2404.90  5.71408
   2421.32  5.81478
   2437.84  5.91725
   2454.48  6.02185
   2471.24  6.12846
   2488.10  6.23709
   2505.09  6.34792
   2522.19  6.46073
   2539.40  6.57579
   2556.73  6.69290
   2574.18  6.81248
   2591.76  6.93446
   2609.45  7.05869
   2627.26  7.18539
   2645.19  7.31436
   2663.24  7.44592
   2681.42  7.57989
   2699.72  7.71667
   2718.15  7.85629
   2736.70  7.99847
   2755.38  8.14342
   2774.19  8.29100
   2793.13  8.44158
   2812.19  8.59498
   2831.39  8.75142
   2850.71  8.91102
   2870.17  9.07357
   2889.76  9.23941
   2909.48  9.40829
   2929.34  9.58073
   2949.34  9.75651
   2969.47  9.93564
   2989.74  10.1182
   3010.14  10.3042
   3030.69  10.4941
   3051.38  10.6875
   3072.20  10.8848
   3093.17  11.0860
   3114.29  11.2910
   3135.54  11.5001
   3156.94  11.7129
   3178.49  11.9304
   3200.19  12.1520
   3222.03  12.3780
   3244.02  12.6084
   3266.17  12.8431
   3288.46  13.0825
   3310.90  13.3264
   3333.50  13.5757
   3356.26  13.8296
   3379.17  14.0885
   3402.23  14.3524
   3425.45  14.6213
   3448.83  14.8957
   3472.37  15.1754
   3496.07  15.4608
   3519.94  15.7517
   3543.96  16.0482
   3568.15  16.3505
   3592.51  16.6585
   3617.03  16.9733
   3641.72  17.2940
   3666.57  17.6211
   3691.60  17.9545
   3716.80  18.2944
   3742.17  18.6410
   3767.71  18.9942
   3793.43  19.3551
   3819.32  19.7229
   3845.39  20.0978
   3871.63  20.4800
   3898.06  20.8697
   3924.67  21.2675
   3951.45  21.6728
   3978.43  22.0865
   4005.58  22.5081
   4032.92  22.9381
   4060.45  23.3765
   4088.16  23.8234
   4116.07  24.2799
   4144.16  24.7451
   4172.45  25.2195
   4200.93  25.7030
   4229.60  26.1962
   4258.47  26.6993
   4287.54  27.2121
   4316.80  27.7357
   4346.27  28.2693
   4375.93  28.8136
   4405.80  29.3685
   4435.87  29.9345
   4466.15  30.5122
   4496.63  31.1009
   4527.33  31.7018
   4558.23  32.3143
   4589.34  32.9391
   4620.67  33.5763
   4652.21  34.2262
   4683.96  34.8895
   4715.93  35.5657
   4748.12  36.2555
   4780.53  36.9587
   4813.16  37.6760
   4846.01  38.4075
   4879.09  39.1534
   4912.39  39.9146
   4945.92  40.6907
   4979.68  41.4824
   5013.67  42.2896
   5047.89  43.1136
   5082.34  43.9547
   5117.03  44.8123
   5151.96  45.6870
   5187.12  46.5788
   5222.53  47.4883
   5258.18  48.4156
   5294.07  49.3618
   5330.20  50.3274
   5366.58  51.3120
   5403.21  52.3164
   5440.09  53.3405
   5477.23  54.3858
   5514.61  55.4520
   5552.25  56.5396
   5590.15  57.6494
   5628.31  58.7809
   5666.72  59.9357
   5705.40  61.1131
   5744.34  62.3144
   5783.55  63.5397
   5823.03  64.7894
   5862.77  66.0643
   5902.79  67.3642
   5943.08  68.6916
   5983.65  70.0453
   6024.49  71.4266
   6065.61  72.8356
   6107.01  74.2726
   6148.69  75.7385
   6190.66  77.2331
   6232.92  78.7584
   6275.46  80.3138
   6318.29  81.9001
   6361.42  83.5194
   6404.84  85.1752
   6448.56  86.8625
   6492.57  88.5815
   6536.89  90.3344
   6581.50  92.1238
   6626.43  93.9487
   6671.66  95.8116
   6717.19  97.7127
   6763.04  99.6519
   6809.21  101.630
   6855.68  103.648
   6902.48  105.707
   6949.59  107.806
   6997.02  109.949
   7044.78  112.136
   7092.87  114.366
   7141.28  116.642
   7190.02  118.963
   7239.10  121.331
   7288.51  123.747
   7338.26  126.213
   7388.35  128.729
   7438.78  131.296
   7489.55  133.915
   7540.67  136.586
   7592.14  139.311
   7643.96  142.091
   7696.14  144.928
   7748.67  147.824
   7801.56  150.777
   7854.81  153.790
   7908.42  156.864
   7962.40  160.002
   8016.75  163.203
   8071.47  166.468
   8126.56  169.801
   8182.03  173.199
   8237.88  176.669
   8294.10  180.207
   8350.72  183.818
   8407.71  187.503
   8465.10  191.262
   8522.88  195.098
   8581.05  199.010
   8639.63  203.005
   8698.60  207.080
   8757.97  211.238
   8817.75  215.480
   8877.93  219.808
   8938.53  224.224
   8999.54  228.729
   9060.97  233.329
   9122.81  238.022
   9185.08  242.809
   9247.78  247.694
   9310.90  252.677
   9374.45  257.763
   9438.44  262.950
   9502.86  268.247
   9567.72  273.650
   9633.03  279.164
   9698.78  284.791
   9764.98  290.531
   9831.63  296.390
   9898.74  302.366
   9966.30  308.465
   10034.3  314.688
   10102.8  321.039
   10171.8  327.522
   10241.2  334.135
   10311.1  340.884
   10381.5  347.768
   10452.3  354.795
   10523.7  361.967
   10595.5  369.284
   10667.8  376.750
   10740.7  384.366
   10814.0  392.143
   10887.8  400.078
   10962.1  408.173
   11036.9  416.432
   11112.2  424.859
   11188.1  433.463
   11264.5  442.240
   11341.3  451.199
   11418.8  460.339
   11496.7  469.665
   11575.2  479.183
   11654.2  488.893
   11733.7  498.807
   11813.8  508.921
   11894.4  519.245
   11975.6  529.777
   12057.4  540.524
   12139.7  551.490
   12222.5  562.678
   12306.0  574.099
   12390.0  585.749
   12474.5  597.643
   12559.7  609.780
   12645.4  622.162
   12731.7  634.800
   12818.6  647.692
   12906.1  660.853
   12994.2  674.280
   13082.9  687.979
   13172.2  701.958
   13262.1  716.222
   13352.6  730.787
   13443.8  745.646
   13535.5  760.807
   13627.9  776.272
   13720.9  792.058
   13814.6  808.169
   13908.9  824.605
   14003.8  841.385
   14099.4  858.502
   14195.6  875.965
   14292.5  893.781
   14390.1  911.965
   14488.3  930.529
   14587.2  949.466
   14686.8  968.792
   14787.0  988.504
   14887.9  1008.63
   14989.5  1029.16
   15091.9  1050.12
   15194.9  1071.51
   15298.6  1093.33
   15403.0  1115.60
   15508.1  1138.32
   15614.0  1161.51
   15720.6  1185.18
   15827.9  1209.32
   15935.9  1233.96
   16044.7  1259.10
   16154.2  1284.76
   16264.5  1310.93
   16375.5  1337.64
   16487.2  1364.90
   16599.8  1392.70
   16713.1  1421.08
   16827.2  1450.02
   16942.0  1479.56
   17057.6  1509.69
   17174.1  1540.44
   17291.3  1571.82
   17409.3  1603.83
   17528.2  1636.50
   17647.8  1669.82
   17768.2  1703.82
   17889.5  1738.50
   18011.6  1773.89
   18134.6  1810.00
   18258.4  1846.82
   18383.0  1884.41
   18508.5  1922.74
   18634.8  1961.86
   18762.0  2001.77
   18890.0  2042.47
   19019.0  2084.00
   19148.8  2126.35
   19279.5  2169.58
   19411.1  2213.64
   19543.6  2258.61
   19677.0  2304.49
   19811.3  2351.28
   19946.5  2399.03
   20082.6  2447.77
   20219.7  2497.48
   20357.7  2548.17
   20496.7  2599.86
   20636.6  2652.57
   20777.4  2706.30
   20919.3  2761.10
   21062.1  2816.95
   21205.8  2873.92
   21350.6  2931.99
   21496.3  2991.18
   21643.0  3051.53
   21790.7  3113.03
   21939.5  3175.74
   22089.2  3239.64
   22240.0  3304.80
   22391.8  3371.21
   22544.6  3438.89
   22698.5  3507.86
   22853.4  3578.13
   23009.4  3649.79
   23166.5  3722.78
   23324.6  3797.17
   23483.8  3872.95
   23644.1  3950.17
   23805.5  4028.84
   23968.0  4108.97
   24131.6  4190.63
   24296.3  4273.80
   24462.1  4358.53
   24629.1  4444.83
   24797.2  4532.73
   24966.4  4622.26
   25136.9  4713.42
   25308.4  4806.27
   25481.2  4900.80
   25655.1  4997.06
   25830.2  5095.09
   26006.5  5194.86
   26184.0  5296.45
   26362.7  5399.84
   26542.7  5505.11
   26723.9  5612.23
   26906.3  5721.25
   27089.9  5832.21
   27274.8  5945.09
   27461.0  6060.00
   27648.4  6176.89
   27837.1  6295.81
   28027.1  6416.79
   28218.4  6539.84
   28411.1  6665.00
   28605.0  6792.25
   28800.2  6921.73
   28996.8  7053.35
   29194.7  7187.20
   29394.0  7323.29
   29594.6  7461.61
   29796.6  7602.21
   30000.0  7745.07
   