 Cu Density=1., Angle=90.deg
 Photon Energy (eV), Atten Length (microns)
   1000.00  0.931952
   1006.83  0.950401
   1013.70  0.969216
   1020.62  0.988406
   1027.58  1.00798
   1034.60  1.02664
   1041.66  1.04296
   1048.77  1.05954
   1055.93  1.07201
   1063.13  1.08449
   1070.39  1.09711
   1077.70  1.10987
   1085.05  1.12279
   1092.46  1.13585
   1099.92  1.14907
   1107.42  1.16243
   1114.98  1.17596
   1122.59  1.18964
   1130.25  1.20349
   1137.97  1.21749
   1145.74  1.23166
   1153.56  1.24598
   1161.43  1.26048
   1169.36  1.27514
   1177.34  1.28998
   1185.38  1.30499
   1193.47  1.32018
   1201.61  1.33554
   1209.81  1.35108
   1218.07  1.36680
   1226.39  1.38270
   1234.76  1.39958
   1243.19  1.41798
   1251.67  1.43667
   1260.21  1.45808
   1268.82  1.47981
   1277.48  1.50403
   1286.20  1.52976
   1294.97  1.55593
   1303.81  1.58254
   1312.71  1.60961
   1321.67  1.63713
   1330.69  1.66513
   1339.78  1.69361
   1348.92  1.72258
   1358.13  1.75205
   1367.40  1.78202
   1376.73  1.81250
   1386.13  1.84350
   1395.59  1.87502
   1405.12  1.90709
   1414.71  1.93971
   1424.36  1.97288
   1434.08  2.00663
   1443.87  2.04096
   1453.73  2.07588
   1463.65  2.11140
   1473.64  2.14754
   1483.70  2.18433
   1493.83  2.22175
   1504.02  2.25992
   1514.29  2.29875
   1524.62  2.33825
   1535.03  2.37844
   1545.51  2.41932
   1556.06  2.46089
   1566.68  2.50318
   1577.37  2.54620
   1588.14  2.58996
   1598.98  2.63447
   1609.89  2.67975
   1620.88  2.72581
   1631.94  2.77266
   1643.08  2.82032
   1654.30  2.86880
   1665.59  2.91811
   1676.96  2.96826
   1688.41  3.01927
   1699.93  3.07117
   1711.53  3.12395
   1723.21  3.17764
   1734.98  3.23295
   1746.82  3.28934
   1758.74  3.34686
   1770.75  3.40555
   1782.83  3.46530
   1795.00  3.52632
   1807.25  3.58841
   1819.59  3.65158
   1832.01  3.71586
   1844.51  3.78126
   1857.10  3.84781
   1869.78  3.91552
   1882.54  3.98441
   1895.39  4.05452
   1908.33  4.12589
   1921.35  4.19854
   1934.47  4.27246
   1947.67  4.34767
   1960.97  4.42421
   1974.35  4.50205
   1987.83  4.58126
   2001.39  4.66135
   2015.06  4.74251
   2028.81  4.82554
   2042.66  4.91131
   2056.60  4.99861
   2070.64  5.08754
   2084.77  5.17807
   2099.00  5.27028
   2113.33  5.36419
   2127.75  5.45981
   2142.27  5.55725
   2156.90  5.65643
   2171.62  5.75761
   2186.44  5.86064
   2201.37  5.96556
   2216.39  6.07242
   2231.52  6.18118
   2246.75  6.29196
   2262.09  6.40471
   2277.53  6.51963
   2293.07  6.63667
   2308.72  6.75593
   2324.48  6.87751
   2340.35  7.00128
   2356.32  7.12723
   2372.40  7.25544
   2388.60  7.38622
   2404.90  7.51949
   2421.32  7.65515
   2437.84  7.79325
   2454.48  7.93384
   2471.24  8.07729
   2488.10  8.22335
   2505.09  8.37205
   2522.19  8.52346
   2539.40  8.67763
   2556.73  8.83462
   2574.18  8.99446
   2591.76  9.15753
   2609.45  9.32358
   2627.26  9.49280
   2645.19  9.66523
   2663.24  9.84075
   2681.42  10.0193
   2699.72  10.2012
   2718.15  10.3866
   2736.70  10.5754
   2755.38  10.7678
   2774.19  10.9637
   2793.13  11.1633
   2812.19  11.3666
   2831.39  11.5737
   2850.71  11.7847
   2870.17  11.9995
   2889.76  12.2184
   2909.48  12.4414
   2929.34  12.6684
   2949.34  12.8998
   2969.47  13.1355
   2989.74  13.3755
   3010.14  13.6200
   3030.69  13.8690
   3051.38  14.1227
   3072.20  14.3811
   3093.17  14.6444
   3114.29  14.9126
   3135.54  15.1857
   3156.94  15.4639
   3178.49  15.7473
   3200.19  16.0362
   3222.03  16.3303
   3244.02  16.6300
   3266.17  16.9351
   3288.46  17.2460
   3310.90  17.5628
   3333.50  17.8854
   3356.26  18.2140
   3379.17  18.5487
   3402.23  18.8898
   3425.45  19.2372
   3448.83  19.5911
   3472.37  19.9517
   3496.07  20.3188
   3519.94  20.6931
   3543.96  21.0743
   3568.15  21.4626
   3592.51  21.8582
   3617.03  22.2611
   3641.72  22.6717
   3666.57  23.0898
   3691.60  23.5160
   3716.80  23.9501
   3742.17  24.3923
   3767.71  24.8426
   3793.43  25.3014
   3819.32  25.7690
   3845.39  26.2453
   3871.63  26.7307
   3898.06  27.2252
   3924.67  27.7288
   3951.45  28.2417
   3978.43  28.7643
   4005.58  29.2969
   4032.92  29.8393
   4060.45  30.3922
   4088.16  30.9555
   4116.07  31.5293
   4144.16  32.1140
   4172.45  32.7096
   4200.93  33.3167
   4229.60  33.9350
   4258.47  34.5650
   4287.54  35.2067
   4316.80  35.8605
   4346.27  36.5268
   4375.93  37.2055
   4405.80  37.8971
   4435.87  38.6014
   4466.15  39.3194
   4496.63  40.0509
   4527.33  40.7965
   4558.23  41.5567
   4589.34  42.3312
   4620.67  43.1196
   4652.21  43.9226
   4683.96  44.7412
   4715.93  45.5754
   4748.12  46.4255
   4780.53  47.2923
   4813.16  48.1752
   4846.01  49.0748
   4879.09  49.9912
   4912.39  50.9253
   4945.92  51.8772
   4979.68  52.8471
   5013.67  53.8357
   5047.89  54.8426
   5082.34  55.8691
   5117.03  56.9149
   5151.96  57.9807
   5187.12  59.0668
   5222.53  60.1735
   5258.18  61.3030
   5294.07  62.4537
   5330.20  63.6253
   5366.58  64.8186
   5403.21  66.0352
   5440.09  67.2763
   5477.23  68.5406
   5514.61  69.8304
   5552.25  71.1445
   5590.15  72.4827
   5628.31  73.8457
   5666.72  75.2357
   5705.40  76.6549
   5744.34  78.1009
   5783.55  79.5727
   5823.03  81.0722
   5862.77  82.6030
   5902.79  84.1649
   5943.08  85.7560
   5983.65  87.3763
   6024.49  89.0273
   6065.61  90.7105
   6107.01  92.4256
   6148.69  94.1758
   6190.66  95.9617
   6232.92  97.7817
   6275.46  99.6372
   6318.29  101.528
   6361.42  103.456
   6404.84  105.421
   6448.56  107.425
   6492.57  109.469
   6536.89  111.552
   6581.50  113.677
   6626.43  115.843
   6671.66  118.052
   6717.19  120.303
   6763.04  122.599
   6809.21  124.941
   6855.68  127.327
   6902.48  129.764
   6949.59  132.247
   6997.02  134.780
   7044.78  137.363
   7092.87  139.997
   7141.28  142.684
   7190.02  145.423
   7239.10  148.219
   7288.51  151.069
   7338.26  153.977
   7388.35  156.943
   7438.78  159.967
   7489.55  163.054
   7540.67  166.200
   7592.14  169.413
   7643.96  172.688
   7696.14  176.030
   7748.67  179.440
   7801.56  182.916
   7854.81  186.467
   7908.42  190.087
   7962.40  193.783
   8016.75  197.553
   8071.47  201.400
   8126.56  205.327
   8182.03  209.331
   8237.88  213.421
   8294.10  217.591
   8350.72  221.851
   8407.71  226.197
   8465.10  230.632
   8522.88  235.161
   8581.05  239.779
   8639.63  244.501
   8698.60  249.315
   8757.97  254.231
   8817.75  259.248
   8877.93  264.364
   8938.53  269.581
   8999.54  35.3807
   9060.97  35.9774
   9122.81  36.5843
   9185.08  37.2027
   9247.78  37.8329
   9310.90  38.4745
   9374.45  39.1300
   9438.44  39.7967
   9502.86  40.4775
   9567.72  41.1705
   9633.03  41.8770
   9698.78  42.5976
   9764.98  43.3308
   9831.63  44.0790
   9898.74  44.8400
   9966.30  45.6178
   10034.3  46.4102
   10102.8  47.2177
   10171.8  48.0415
   10241.2  48.8797
   10311.1  49.7361
   10381.5  50.6075
   10452.3  51.4966
   10523.7  52.4026
   10595.5  53.3256
   10667.8  54.2676
   10740.7  55.2262
   10814.0  56.2052
   10887.8  57.2017
   10962.1  58.2182
   11036.9  59.2544
   11112.2  60.3099
   11188.1  61.3873
   11264.5  62.4839
   11341.3  63.6037
   11418.8  64.7440
   11496.7  65.9067
   11575.2  67.0920
   11654.2  68.2991
   11733.7  69.5315
   11813.8  70.7861
   11894.4  72.0668
   11975.6  73.3715
   12057.4  74.7014
   12139.7  76.0575
   12222.5  77.4388
   12306.0  78.8494
   12390.0  80.2857
   12474.5  81.7509
   12559.7  83.2440
   12645.4  84.7658
   12731.7  86.3185
   12818.6  87.8995
   12906.1  89.5135
   12994.2  91.1570
   13082.9  92.8340
   13172.2  94.5438
   13262.1  96.2863
   13352.6  98.0638
   13443.8  99.8740
   13535.5  101.722
   13627.9  103.605
   13720.9  105.525
   13814.6  107.483
   13908.9  109.478
   14003.8  111.514
   14099.4  113.587
   14195.6  115.703
   14292.5  117.860
   14390.1  120.059
   14488.3  122.302
   14587.2  124.588
   14686.8  126.919
   14787.0  129.294
   14887.9  131.719
   14989.5  134.190
   15091.9  136.709
   15194.9  139.279
   15298.6  141.898
   15403.0  144.570
   15508.1  147.293
   15614.0  150.072
   15720.6  152.905
   15827.9  155.792
   15935.9  158.737
   16044.7  161.738
   16154.2  164.801
   16264.5  167.923
   16375.5  171.107
   16487.2  174.354
   16599.8  177.664
   16713.1  181.041
   16827.2  184.482
   16942.0  187.994
   17057.6  191.573
   17174.1  195.224
   17291.3  198.947
   17409.3  202.742
   17528.2  206.614
   17647.8  210.559
   17768.2  214.587
   17889.5  218.692
   18011.6  222.879
   18134.6  227.149
   18258.4  231.501
   18383.0  235.943
   18508.5  240.469
   18634.8  245.087
   18762.0  249.795
   18890.0  254.597
   19019.0  259.496
   19148.8  264.488
   19279.5  269.584
   19411.1  274.778
   19543.6  280.075
   19677.0  285.475
   19811.3  290.983
   19946.5  296.603
   20082.6  302.332
   20219.7  308.178
   20357.7  314.137
   20496.7  320.217
   20636.6  326.417
   20777.4  332.739
   20919.3  339.189
   21062.1  345.762
   21205.8  352.471
   21350.6  359.310
   21496.3  366.286
   21643.0  373.400
   21790.7  380.654
   21939.5  388.055
   22089.2  395.600
   22240.0  403.299
   22391.8  411.149
   22544.6  419.155
   22698.5  427.321
   22853.4  435.646
   23009.4  444.141
   23166.5  452.801
   23324.6  461.636
   23483.8  470.645
   23644.1  479.833
   23805.5  489.205
   23968.0  498.760
   24131.6  508.511
   24296.3  518.451
   24462.1  528.591
   24629.1  538.931
   24797.2  549.475
   24966.4  560.232
   25136.9  571.198
   25308.4  582.389
   25481.2  593.798
   25655.1  605.435
   25830.2  617.304
   26006.5  629.406
   26184.0  641.755
   26362.7  654.343
   26542.7  667.185
   26723.9  680.278
   26906.3  693.632
   27089.9  707.252
   27274.8  721.140
   27461.0  735.308
   27648.4  749.752
   27837.1  764.488
   28027.1  779.514
   28218.4  794.837
   28411.1  810.465
   28605.0  826.398
   28800.2  842.656
   28996.8  859.228
   29194.7  876.135
   29394.0  893.374
   29594.6  910.953
   29796.6  928.883
   30000.0  947.161
