 Zr Density=1., Angle=90.deg
 Photon Energy (eV), Atten Length (microns)
   1000.00  2.25408
   1006.83  2.28901
   1013.70  2.32448
   1020.62  2.36072
   1027.58  2.39814
   1034.60  2.43647
   1041.66  2.47880
   1048.77  2.52186
   1055.93  2.56567
   1063.13  2.61023
   1070.39  2.65558
   1077.70  2.70171
   1085.05  2.74645
   1092.46  2.79035
   1099.92  2.83402
   1107.42  2.87705
   1114.98  2.92073
   1122.59  2.96508
   1130.25  3.01011
   1137.97  3.05581
   1145.74  3.10219
   1153.56  3.15153
   1161.43  3.20187
   1169.36  3.25336
   1177.34  3.30581
   1185.38  3.35911
   1193.47  3.41327
   1201.61  3.47012
   1209.81  3.53056
   1218.07  3.59308
   1226.39  3.65998
   1234.76  3.72813
   1243.19  3.79755
   1251.67  3.86825
   1260.21  3.94119
   1268.82  4.01560
   1277.48  4.09452
   1286.20  4.17615
   1294.97  4.25938
   1303.81  4.34426
   1312.71  4.43000
   1321.67  4.51615
   1330.69  4.60065
   1339.78  4.67553
   1348.92  4.75163
   1358.13  4.82898
   1367.40  4.90760
   1376.73  4.98750
   1386.13  5.06870
   1395.59  5.15125
   1405.12  5.23516
   1414.71  5.32042
   1424.36  5.40706
   1434.08  5.49509
   1443.87  5.58452
   1453.73  5.67543
   1463.65  5.76792
   1473.64  5.86193
   1483.70  5.95759
   1493.83  6.05481
   1504.02  6.15412
   1514.29  6.25514
   1524.62  6.35783
   1535.03  6.46220
   1545.51  6.56835
   1556.06  6.67628
   1566.68  6.78597
   1577.37  6.89745
   1588.14  7.01076
   1598.98  7.12596
   1609.89  7.24303
   1620.88  7.36190
   1631.94  7.48272
   1643.08  7.60557
   1654.30  7.73044
   1665.59  7.85746
   1676.96  7.98661
   1688.41  8.11777
   1699.93  8.25102
   1711.53  8.38649
   1723.21  8.52427
   1734.98  8.66454
   1746.82  8.80805
   1758.74  8.95393
   1770.75  9.10244
   1782.83  9.25342
   1795.00  9.40717
   1807.25  9.56351
   1819.59  9.72249
   1832.01  9.88412
   1844.51  10.0484
   1857.10  10.2154
   1869.78  10.3852
   1882.54  10.5578
   1895.39  10.7332
   1908.33  10.9116
   1921.35  11.0929
   1934.47  11.2772
   1947.67  11.4646
   1960.97  11.6551
   1974.35  11.8488
   1987.83  12.0457
   2001.39  12.2456
   2015.06  12.4465
   2028.81  12.6516
   2042.66  12.8634
   2056.60  13.0788
   2070.64  13.2980
   2084.77  13.5211
   2099.00  13.7481
   2113.33  13.9791
   2127.75  14.2141
   2142.27  14.4533
   2156.90  14.6965
   2171.62  14.9443
   2186.44  15.1963
   2201.37  15.4529
   2216.39  15.7138
   2231.52  4.23764
   2246.75  4.31684
   2262.09  4.39749
   2277.53  4.47965
   2293.07  4.56334
   2308.72  3.37419
   2324.48  3.42920
   2340.35  3.48511
   2356.32  3.54192
   2372.40  3.59964
   2388.60  3.65828
   2404.90  3.71788
   2421.32  3.77846
   2437.84  3.84002
   2454.48  3.90256
   2471.24  3.96616
   2488.10  4.03080
   2505.09  4.09645
   2522.19  4.16314
   2539.40  3.70418
   2556.73  3.76511
   2574.18  3.82702
   2591.76  3.88996
   2609.45  3.95420
   2627.26  4.01953
   2645.19  4.08622
   2663.24  4.15406
   2681.42  4.22320
   2699.72  4.29358
   2718.15  4.36534
   2736.70  4.43841
   2755.38  4.51291
   2774.19  4.58876
   2793.13  4.66605
   2812.19  4.74477
   2831.39  4.82492
   2850.71  4.90657
   2870.17  4.98971
   2889.76  5.07452
   2909.48  5.16090
   2929.34  5.24891
   2949.34  5.33847
   2969.47  5.42967
   2989.74  5.52245
   3010.14  5.61731
   3030.69  5.71382
   3051.38  5.81206
   3072.20  5.91208
   3093.17  6.01421
   3114.29  6.11812
   3135.54  6.22389
   3156.94  6.33161
   3178.49  6.44150
   3200.19  6.55344
   3222.03  6.66755
   3244.02  6.78367
   3266.17  6.90184
   3288.46  7.02238
   3310.90  7.14524
   3333.50  7.27040
   3356.26  7.39780
   3379.17  7.52744
   3402.23  7.65933
   3425.45  7.79406
   3448.83  7.93122
   3472.37  8.07142
   3496.07  8.21407
   3519.94  8.35893
   3543.96  8.50647
   3568.15  8.65739
   3592.51  8.81094
   3617.03  8.96706
   3641.72  9.12612
   3666.57  9.28833
   3691.60  9.45360
   3716.80  9.62203
   3742.17  9.79360
   3767.71  9.96833
   3793.43  10.1464
   3819.32  10.3277
   3845.39  10.5125
   3871.63  10.7008
   3898.06  10.8926
   3924.67  11.0879
   3951.45  11.2871
   3978.43  11.4898
   4005.58  11.6965
   4032.92  11.9069
   4060.45  12.1215
   4088.16  12.3400
   4116.07  12.5626
   4144.16  12.7894
   4172.45  13.0204
   4200.93  13.2558
   4229.60  13.4957
   4258.47  13.7402
   4287.54  13.9892
   4316.80  14.2428
   4346.27  14.5012
   4375.93  14.7646
   4405.80  15.0328
   4435.87  15.3062
   4466.15  15.5847
   4496.63  15.8684
   4527.33  16.1574
   4558.23  16.4520
   4589.34  16.7519
   4620.67  17.0577
   4652.21  17.3691
   4683.96  17.6866
   4715.93  18.0099
   4748.12  18.3394
   4780.53  18.6751
   4813.16  19.0172
   4846.01  19.3657
   4879.09  19.7207
   4912.39  20.0824
   4945.92  20.4510
   4979.68  20.8264
   5013.67  21.2089
   5047.89  21.5987
   5082.34  21.9959
   5117.03  22.4007
   5151.96  22.8130
   5187.12  23.2334
   5222.53  23.6615
   5258.18  24.0977
   5294.07  24.5418
   5330.20  24.9947
   5366.58  25.4560
   5403.21  25.9261
   5440.09  26.4049
   5477.23  26.8931
   5514.61  27.3904
   5552.25  27.8971
   5590.15  28.4133
   5628.31  28.9391
   5666.72  29.4752
   5705.40  30.0216
   5744.34  30.5781
   5783.55  31.1450
   5823.03  31.7225
   5862.77  32.3108
   5902.79  32.9104
   5943.08  33.5213
   5983.65  34.1440
   6024.49  34.7784
   6065.61  35.4248
   6107.01  36.0833
   6148.69  36.7546
   6190.66  37.4384
   6232.92  38.1348
   6275.46  38.8445
   6318.29  39.5686
   6361.42  40.3061
   6404.84  41.0572
   6448.56  41.8222
   6492.57  42.6014
   6536.89  43.3959
   6581.50  44.2061
   6626.43  45.0313
   6671.66  45.8718
   6717.19  46.7279
   6763.04  47.5999
   6809.21  48.4891
   6855.68  49.3952
   6902.48  50.3187
   6949.59  51.2595
   6997.02  52.2176
   7044.78  53.1936
   7092.87  54.1893
   7141.28  55.2035
   7190.02  56.2360
   7239.10  57.2881
   7288.51  58.3615
   7338.26  59.4545
   7388.35  60.5671
   7438.78  61.7015
   7489.55  62.8584
   7540.67  64.0373
   7592.14  65.2387
   7643.96  66.4620
   7696.14  67.7076
   7748.67  68.9778
   7801.56  70.2725
   7854.81  71.5902
   7908.42  72.9324
   7962.40  74.3015
   8016.75  75.6966
   8071.47  77.1197
   8126.56  78.5694
   8182.03  80.0457
   8237.88  81.5497
   8294.10  83.0823
   8350.72  84.6433
   8407.71  86.2327
   8465.10  87.8530
   8522.88  89.5065
   8581.05  91.1912
   8639.63  92.9077
   8698.60  94.6564
   8757.97  96.4380
   8817.75  98.2525
   8877.93  100.101
   8938.53  101.985
   8999.54  103.905
   9060.97  105.862
   9122.81  107.856
   9185.08  109.887
   9247.78  111.957
   9310.90  114.067
   9374.45  116.217
   9438.44  118.407
   9502.86  120.639
   9567.72  122.913
   9633.03  125.230
   9698.78  127.591
   9764.98  129.997
   9831.63  132.449
   9898.74  134.946
   9966.30  137.492
   10034.3  140.086
   10102.8  142.729
   10171.8  145.423
   10241.2  148.168
   10311.1  150.965
   10381.5  153.815
   10452.3  156.721
   10523.7  159.681
   10595.5  162.697
   10667.8  165.770
   10740.7  168.901
   10814.0  172.091
   10887.8  175.343
   10962.1  178.657
   11036.9  182.033
   11112.2  185.473
   11188.1  188.979
   11264.5  192.551
   11341.3  196.193
   11418.8  199.903
   11496.7  203.684
   11575.2  207.536
   11654.2  211.461
   11733.7  215.462
   11813.8  219.538
   11894.4  223.694
   11975.6  227.928
   12057.4  232.241
   12139.7  236.635
   12222.5  241.115
   12306.0  245.681
   12390.0  250.334
   12474.5  255.075
   12559.7  259.907
   12645.4  264.830
   12731.7  269.848
   12818.6  274.960
   12906.1  280.168
   12994.2  285.478
   13082.9  290.887
   13172.2  296.402
   13262.1  302.021
   13352.6  307.748
   13443.8  313.584
   13535.5  319.532
   13627.9  325.593
   13720.9  331.769
   13814.6  338.062
   13908.9  344.475
   14003.8  351.013
   14099.4  357.675
   14195.6  364.465
   14292.5  371.383
   14390.1  378.436
   14488.3  385.622
   14587.2  392.946
   14686.8  400.409
   14787.0  408.016
   14887.9  415.770
   14989.5  423.673
   15091.9  431.727
   15194.9  439.934
   15298.6  448.300
   15403.0  456.824
   15508.1  465.513
   15614.0  474.367
   15720.6  483.393
   15827.9  492.590
   15935.9  501.965
   16044.7  511.520
   16154.2  521.259
   16264.5  531.186
   16375.5  541.304
   16487.2  551.618
   16599.8  562.128
   16713.1  572.841
   16827.2  583.757
   16942.0  594.889
   17057.6  606.231
   17174.1  617.796
   17291.3  629.579
   17409.3  641.593
   17528.2  653.837
   17647.8  666.317
   17768.2  679.036
   17889.5  691.997
   18011.6  103.908
   18134.6  105.718
   18258.4  107.560
   18383.0  109.435
   18508.5  111.349
   18634.8  113.297
   18762.0  115.285
   18890.0  117.308
   19019.0  119.372
   19148.8  121.475
   19279.5  123.619
   19411.1  125.803
   19543.6  128.029
   19677.0  130.299
   19811.3  132.611
   19946.5  134.970
   20082.6  137.372
   20219.7  139.823
   20357.7  142.317
   20496.7  144.864
   20636.6  147.456
   20777.4  150.101
   20919.3  152.795
   21062.1  155.542
   21205.8  158.341
   21350.6  161.194
   21496.3  164.103
   21643.0  167.067
   21790.7  170.090
   21939.5  173.168
   22089.2  176.309
   22240.0  179.507
   22391.8  182.772
   22544.6  186.096
   22698.5  189.486
   22853.4  192.941
   23009.4  196.463
   23166.5  200.053
   23324.6  203.712
   23483.8  207.443
   23644.1  211.244
   23805.5  215.121
   23968.0  219.070
   24131.6  223.099
   24296.3  227.203
   24462.1  231.390
   24629.1  235.655
   24797.2  240.005
   24966.4  244.437
   25136.9  248.957
   25308.4  253.564
   25481.2  258.259
   25655.1  263.048
   25830.2  267.927
   26006.5  272.903
   26184.0  277.972
   26362.7  283.146
   26542.7  288.415
   26723.9  293.789
   26906.3  299.265
   27089.9  304.850
   27274.8  310.542
   27461.0  316.345
   27648.4  322.261
   27837.1  328.291
   28027.1  334.439
   28218.4  340.705
   28411.1  347.097
   28605.0  353.608
   28800.2  360.251
   28996.8  367.018
   29194.7  373.922
   29394.0  380.957
   29594.6  388.130
   29796.6  395.440
   30000.0  402.894
