 Fe Density=1., Angle=90.deg
 Photon Energy (eV), Atten Length (microns)
   1000.00  1.10929
   1006.83  1.12709
   1013.70  1.14517
   1020.62  1.16364
   1027.58  1.18245
   1034.60  1.20162
   1041.66  1.22124
   1048.77  1.24117
   1055.93  1.26165
   1063.13  1.28248
   1070.39  1.30365
   1077.70  1.32517
   1085.05  1.34705
   1092.46  1.36929
   1099.92  1.39189
   1107.42  1.41487
   1114.98  1.43823
   1122.59  1.46198
   1130.25  1.48612
   1137.97  1.51066
   1145.74  1.53559
   1153.56  1.56094
   1161.43  1.58670
   1169.36  1.61290
   1177.34  1.63953
   1185.38  1.66660
   1193.47  1.69411
   1201.61  1.72209
   1209.81  1.75052
   1218.07  1.77942
   1226.39  1.80880
   1234.76  1.83876
   1243.19  1.86937
   1251.67  1.90050
   1260.21  1.93243
   1268.82  1.96489
   1277.48  1.99815
   1286.20  2.03210
   1294.97  2.06663
   1303.81  2.10174
   1312.71  2.13744
   1321.67  2.17375
   1330.69  2.21067
   1339.78  2.24823
   1348.92  2.28644
   1358.13  2.32529
   1367.40  2.36481
   1376.73  2.40501
   1386.13  2.44587
   1395.59  2.48743
   1405.12  2.52970
   1414.71  2.57267
   1424.36  2.61638
   1434.08  2.66083
   1443.87  2.70603
   1453.73  2.75209
   1463.65  2.79895
   1473.64  2.84669
   1483.70  2.89536
   1493.83  2.94492
   1504.02  2.99603
   1514.29  3.04804
   1524.62  3.10102
   1535.03  3.15496
   1545.51  3.20982
   1556.06  3.26563
   1566.68  3.32241
   1577.37  3.38019
   1588.14  3.43897
   1598.98  3.49877
   1609.89  3.55962
   1620.88  3.62153
   1631.94  3.68453
   1643.08  3.74863
   1654.30  3.81381
   1665.59  3.88013
   1676.96  3.94761
   1688.41  4.01625
   1699.93  4.08610
   1711.53  4.15718
   1723.21  4.22949
   1734.98  4.30414
   1746.82  4.38031
   1758.74  4.45806
   1770.75  4.53743
   1782.83  4.61827
   1795.00  4.70090
   1807.25  4.78502
   1819.59  4.87063
   1832.01  4.95777
   1844.51  5.04647
   1857.10  5.13675
   1869.78  5.22863
   1882.54  5.32216
   1895.39  5.41735
   1908.33  5.51424
   1921.35  5.61286
   1934.47  5.71325
   1947.67  5.81543
   1960.97  5.91944
   1974.35  6.02535
   1987.83  6.13314
   2001.39  6.24212
   2015.06  6.35255
   2028.81  6.46559
   2042.66  6.58253
   2056.60  6.70157
   2070.64  6.82290
   2084.77  6.94645
   2099.00  7.07238
   2113.33  7.20074
   2127.75  7.33147
   2142.27  7.46472
   2156.90  7.60039
   2171.62  7.73877
   2186.44  7.87972
   2201.37  8.02332
   2216.39  8.16963
   2231.52  8.31863
   2246.75  8.47051
   2262.09  8.62517
   2277.53  8.78284
   2293.07  8.94345
   2308.72  9.10718
   2324.48  9.27416
   2340.35  9.44422
   2356.32  9.61740
   2372.40  9.79377
   2388.60  9.97357
   2404.90  10.1568
   2421.32  10.3434
   2437.84  10.5337
   2454.48  10.7275
   2471.24  10.9250
   2488.10  11.1262
   2505.09  11.3313
   2522.19  11.5402
   2539.40  11.7530
   2556.73  11.9700
   2574.18  12.1910
   2591.76  12.4163
   2609.45  12.6457
   2627.26  12.8796
   2645.19  13.1179
   2663.24  13.3606
   2681.42  13.6081
   2699.72  13.8602
   2718.15  14.1171
   2736.70  14.3788
   2755.38  14.6455
   2774.19  14.9172
   2793.13  15.1941
   2812.19  15.4762
   2831.39  15.7636
   2850.71  16.0566
   2870.17  16.3552
   2889.76  16.6594
   2909.48  16.9693
   2929.34  17.2851
   2949.34  17.6070
   2969.47  17.9349
   2989.74  18.2690
   3010.14  18.6094
   3030.69  18.9562
   3051.38  19.3098
   3072.20  19.6700
   3093.17  20.0371
   3114.29  20.4111
   3135.54  20.7922
   3156.94  21.1805
   3178.49  21.5762
   3200.19  21.9793
   3222.03  22.3900
   3244.02  22.8087
   3266.17  23.2352
   3288.46  23.6698
   3310.90  24.1127
   3333.50  24.5639
   3356.26  25.0237
   3379.17  25.4921
   3402.23  25.9695
   3425.45  26.4560
   3448.83  26.9517
   3472.37  27.4570
   3496.07  27.9717
   3519.94  28.4961
   3543.96  29.0301
   3568.15  29.5745
   3592.51  30.1292
   3617.03  30.6945
   3641.72  31.2707
   3666.57  31.8577
   3691.60  32.4555
   3716.80  33.0646
   3742.17  33.6855
   3767.71  34.3183
   3793.43  34.9630
   3819.32  35.6198
   3845.39  36.2890
   3871.63  36.9710
   3898.06  37.6658
   3924.67  38.3737
   3951.45  39.0948
   3978.43  39.8296
   4005.58  40.5786
   4032.92  41.3417
   4060.45  42.1190
   4088.16  42.9108
   4116.07  43.7180
   4144.16  44.5409
   4172.45  45.3793
   4200.93  46.2329
   4229.60  47.1025
   4258.47  47.9891
   4287.54  48.8926
   4316.80  49.8131
   4346.27  50.7510
   4375.93  51.7066
   4405.80  52.6800
   4435.87  53.6717
   4466.15  54.6817
   4496.63  55.7105
   4527.33  56.7593
   4558.23  57.8289
   4589.34  58.9187
   4620.67  60.0277
   4652.21  61.1575
   4683.96  62.3086
   4715.93  63.4814
   4748.12  64.6767
   4780.53  65.8956
   4813.16  67.1374
   4846.01  68.4013
   4879.09  69.6886
   4912.39  71.0015
   4945.92  72.3404
   4979.68  73.7040
   5013.67  75.0915
   5047.89  76.5050
   5082.34  77.9455
   5117.03  79.4132
   5151.96  80.9090
   5187.12  82.4334
   5222.53  83.9863
   5258.18  85.5674
   5294.07  87.1784
   5330.20  88.8207
   5366.58  90.4943
   5403.21  92.1986
   5440.09  93.9334
   5477.23  95.7008
   5514.61  97.5030
   5552.25  99.3391
   5590.15  101.209
   5628.31  103.115
   5666.72  105.056
   5705.40  107.033
   5744.34  109.048
   5783.55  111.100
   5823.03  113.191
   5862.77  115.321
   5902.79  117.491
   5943.08  119.702
   5983.65  121.954
   6024.49  124.249
   6065.61  126.586
   6107.01  128.967
   6148.69  131.392
   6190.66  133.863
   6232.92  136.380
   6275.46  138.944
   6318.29  141.556
   6361.42  144.217
   6404.84  146.929
   6448.56  149.690
   6492.57  152.503
   6536.89  155.368
   6581.50  158.287
   6626.43  161.261
   6671.66  164.290
   6717.19  167.376
   6763.04  170.519
   6809.21  173.721
   6855.68  176.982
   6902.48  180.304
   6949.59  183.689
   6997.02  187.135
   7044.78  190.646
   7092.87  194.222
   7141.28  24.7207
   7190.02  25.1359
   7239.10  25.5580
   7288.51  25.9873
   7338.26  26.4253
   7388.35  26.8718
   7438.78  27.3264
   7489.55  27.7911
   7540.67  28.2636
   7592.14  28.7459
   7643.96  29.2367
   7696.14  29.7372
   7748.67  30.2477
   7801.56  30.7672
   7854.81  31.2979
   7908.42  31.8379
   7962.40  32.3891
   8016.75  32.9505
   8071.47  33.5227
   8126.56  34.1063
   8182.03  34.7003
   8237.88  35.3073
   8294.10  35.9248
   8350.72  36.5547
   8407.71  37.1963
   8465.10  37.8503
   8522.88  38.5182
   8581.05  39.1978
   8639.63  39.8916
   8698.60  40.5976
   8757.97  41.3182
   8817.75  42.0526
   8877.93  42.8006
   8938.53  43.5634
   8999.54  44.3397
   9060.97  45.1338
   9122.81  45.9424
   9185.08  46.7666
   9247.78  47.6065
   9310.90  48.4621
   9374.45  49.3355
   9438.44  50.2245
   9502.86  51.1319
   9567.72  52.0559
   9633.03  52.9985
   9698.78  53.9601
   9764.98  54.9394
   9831.63  55.9379
   9898.74  56.9545
   9966.30  57.9929
   10034.3  59.0515
   10102.8  60.1304
   10171.8  61.2308
   10241.2  62.3515
   10311.1  63.4958
   10381.5  64.6611
   10452.3  65.8501
   10523.7  67.0619
   10595.5  68.2972
   10667.8  69.5574
   10740.7  70.8408
   10814.0  72.1512
   10887.8  73.4859
   10962.1  74.8473
   11036.9  76.2354
   11112.2  77.6501
   11188.1  79.0937
   11264.5  80.5643
   11341.3  82.0655
   11418.8  83.5952
   11496.7  85.1549
   11575.2  86.7453
   11654.2  88.3658
   11733.7  90.0198
   11813.8  91.7047
   11894.4  93.4244
   11975.6  95.1772
   12057.4  96.9644
   12139.7  98.7868
   12222.5  100.644
   12306.0  102.540
   12390.0  104.473
   12474.5  106.444
   12559.7  108.453
   12645.4  110.501
   12731.7  112.591
   12818.6  114.720
   12906.1  116.893
   12994.2  119.107
   13082.9  121.367
   13172.2  123.671
   13262.1  126.020
   13352.6  128.417
   13443.8  130.859
   13535.5  133.351
   13627.9  135.891
   13720.9  138.482
   13814.6  141.125
   13908.9  143.818
   14003.8  146.568
   14099.4  149.370
   14195.6  152.228
   14292.5  155.142
   14390.1  158.114
   14488.3  161.146
   14587.2  164.237
   14686.8  167.390
   14787.0  170.603
   14887.9  173.883
   14989.5  177.228
   15091.9  180.639
   15194.9  184.118
   15298.6  187.664
   15403.0  191.284
   15508.1  194.973
   15614.0  198.738
   15720.6  202.577
   15827.9  206.491
   15935.9  210.485
   16044.7  214.556
   16154.2  218.710
   16264.5  222.944
   16375.5  227.265
   16487.2  231.672
   16599.8  236.165
   16713.1  240.750
   16827.2  245.423
   16942.0  250.193
   17057.6  255.056
   17174.1  260.017
   17291.3  265.076
   17409.3  270.235
   17528.2  275.498
   17647.8  280.864
   17768.2  286.341
   17889.5  291.925
   18011.6  297.621
   18134.6  303.430
   18258.4  309.354
   18383.0  315.399
   18508.5  321.562
   18634.8  327.850
   18762.0  334.263
   18890.0  340.805
   19019.0  347.477
   19148.8  354.280
   19279.5  361.224
   19411.1  368.303
   19543.6  375.523
   19677.0  382.888
   19811.3  390.399
   19946.5  398.063
   20082.6  405.878
   20219.7  413.853
   20357.7  421.985
   20496.7  430.281
   20636.6  438.744
   20777.4  447.375
   20919.3  456.180
   21062.1  465.156
   21205.8  474.317
   21350.6  483.659
   21496.3  493.188
   21643.0  502.907
   21790.7  512.819
   21939.5  522.934
   22089.2  533.247
   22240.0  543.770
   22391.8  554.501
   22544.6  565.447
   22698.5  576.613
   22853.4  587.998
   23009.4  599.616
   23166.5  611.462
   23324.6  623.548
   23483.8  635.874
   23644.1  648.445
   23805.5  661.270
   23968.0  674.348
   24131.6  687.692
   24296.3  701.298
   24462.1  715.179
   24629.1  729.334
   24797.2  743.772
   24966.4  758.500
   25136.9  773.516
   25308.4  788.841
   25481.2  804.467
   25655.1  820.405
   25830.2  836.662
   26006.5  853.240
   26184.0  870.156
   26362.7  887.403
   26542.7  904.997
   26723.9  922.935
   26906.3  941.232
   27089.9  959.895
   27274.8  978.925
   27461.0  998.340
   27648.4  1018.13
   27837.1  1038.33
   28027.1  1058.92
   28218.4  1079.92
   28411.1  1101.34
   28605.0  1123.17
   28800.2  1145.46
   28996.8  1168.17
   29194.7  1191.34
   29394.0  1214.97
   29594.6  1239.06
   29796.6  1263.63
   30000.0  1288.68
