  Al Density=1., Angle=90.deg
 Photon Energy (eV), Atten Length (microns)
   1000.00  8.40833
   1006.83  8.56595
   1013.70  8.72653
   1020.62  8.88690
   1027.58  9.04872
   1034.60  9.21453
   1041.66  9.38556
   1048.77  9.55975
   1055.93  9.74082
   1063.13  9.92544
   1070.39  10.1136
   1077.70  10.3054
   1085.05  10.5008
   1092.46  10.6999
   1099.92  10.9028
   1107.42  11.1096
   1114.98  11.3203
   1122.59  11.5349
   1130.25  11.7536
   1137.97  11.9765
   1145.74  12.2035
   1153.56  12.4348
   1161.43  12.6706
   1169.36  12.9109
   1177.34  13.1558
   1185.38  13.4052
   1193.47  13.6594
   1201.61  13.9184
   1209.81  14.1823
   1218.07  14.4513
   1226.39  14.7253
   1234.76  15.0038
   1243.19  15.2864
   1251.67  15.5743
   1260.21  15.8655
   1268.82  16.1621
   1277.48  16.4625
   1286.20  16.7676
   1294.97  17.0784
   1303.81  17.3949
   1312.71  17.7174
   1321.67  18.0458
   1330.69  18.3803
   1339.78  18.7210
   1348.92  19.0681
   1358.13  19.4216
   1367.40  19.7815
   1376.73  20.1482
   1386.13  20.5216
   1395.59  20.9019
   1405.12  21.2893
   1414.71  21.6837
   1424.36  22.0855
   1434.08  22.4949
   1443.87  22.9119
   1453.73  23.3395
   1463.65  23.7758
   1473.64  24.2229
   1483.70  24.6819
   1493.83  25.1515
   1504.02  25.6544
   1514.29  26.1673
   1524.62  26.6932
   1535.03  27.2307
   1545.51  27.7791
   1556.06  28.3386
   1566.68  2.42584
   1577.37  2.46515
   1588.14  2.50511
   1598.98  2.54570
   1609.89  2.58696
   1620.88  2.62887
   1631.94  2.67146
   1643.08  2.71474
   1654.30  2.75873
   1665.59  2.80343
   1676.96  2.84886
   1688.41  2.89502
   1699.93  2.94192
   1711.53  2.98960
   1723.21  3.03804
   1734.98  3.08861
   1746.82  3.14027
   1758.74  3.19307
   1770.75  3.24706
   1782.83  3.30202
   1795.00  3.35829
   1807.25  3.41553
   1819.59  3.47375
   1832.01  3.53296
   1844.51  3.59318
   1857.10  3.65443
   1869.78  3.71671
   1882.54  3.78007
   1895.39  3.84452
   1908.33  3.91004
   1921.35  3.97668
   1934.47  4.04445
   1947.67  4.11337
   1960.97  4.18347
   1974.35  4.25477
   1987.83  4.32729
   2001.39  4.40029
   2015.06  4.47405
   2028.81  4.54983
   2042.66  4.62913
   2056.60  4.70982
   2070.64  4.79236
   2084.77  4.87640
   2099.00  4.96210
   2113.33  5.04948
   2127.75  5.13843
   2142.27  5.22915
   2156.90  5.32148
   2171.62  5.41588
   2186.44  5.51204
   2201.37  5.61002
   2216.39  5.70986
   2231.52  5.81153
   2246.75  5.91538
   2262.09  6.02109
   2277.53  6.12894
   2293.07  6.23881
   2308.72  6.35078
   2324.48  6.46497
   2340.35  6.58124
   2356.32  6.70006
   2372.40  6.82103
   2388.60  6.94439
   2404.90  7.07007
   2421.32  7.19813
   2437.84  7.32877
   2454.48  7.46177
   2471.24  7.59775
   2488.10  7.73624
   2505.09  7.87742
   2522.19  8.02130
   2539.40  8.16790
   2556.73  8.31750
   2574.18  8.46985
   2591.76  8.62531
   2609.45  8.78365
   2627.26  8.94518
   2645.19  9.10993
   2663.24  9.27776
   2681.42  9.44892
   2699.72  9.62324
   2718.15  9.80131
   2736.70  9.98281
   2755.38  10.1678
   2774.19  10.3565
   2793.13  10.5486
   2812.19  10.7448
   2831.39  10.9445
   2850.71  11.1484
   2870.17  11.3562
   2889.76  11.5680
   2909.48  11.7841
   2929.34  12.0043
   2949.34  12.2291
   2969.47  12.4580
   2989.74  12.6915
   3010.14  12.9296
   3030.69  13.1722
   3051.38  13.4199
   3072.20  13.6722
   3093.17  13.9297
   3114.29  14.1921
   3135.54  14.4597
   3156.94  14.7326
   3178.49  15.0107
   3200.19  15.2946
   3222.03  15.5838
   3244.02  15.8789
   3266.17  16.1797
   3288.46  16.4865
   3310.90  16.7995
   3333.50  17.1185
   3356.26  17.4440
   3379.17  17.7756
   3402.23  18.1139
   3425.45  18.4589
   3448.83  18.8106
   3472.37  19.1695
   3496.07  19.5352
   3519.94  19.9086
   3543.96  20.2891
   3568.15  20.6773
   3592.51  21.0730
   3617.03  21.4766
   3641.72  21.8883
   3666.57  22.3079
   3691.60  22.7362
   3716.80  23.1728
   3742.17  23.6182
   3767.71  24.0723
   3793.43  24.5354
   3819.32  25.0078
   3845.39  25.4893
   3871.63  25.9808
   3898.06  26.4818
   3924.67  26.9928
   3951.45  27.5140
   3978.43  28.0454
   4005.58  28.5878
   4032.92  29.1408
   4060.45  29.7050
   4088.16  30.2802
   4116.07  30.8670
   4144.16  31.4655
   4172.45  32.0758
   4200.93  32.6986
   4229.60  33.3334
   4258.47  33.9811
   4287.54  34.6415
   4316.80  35.3152
   4346.27  36.0026
   4375.93  36.7034
   4405.80  37.4187
   4435.87  38.1478
   4466.15  38.8917
   4496.63  39.6504
   4527.33  40.4244
   4558.23  41.2144
   4589.34  42.0198
   4620.67  42.8413
   4652.21  43.6789
   4683.96  44.5335
   4715.93  45.4053
   4748.12  46.2945
   4780.53  47.2021
   4813.16  48.1275
   4846.01  49.0713
   4879.09  50.0336
   4912.39  51.0158
   4945.92  52.0180
   4979.68  53.0401
   5013.67  54.0829
   5047.89  55.1460
   5082.34  56.2309
   5117.03  57.3373
   5151.96  58.4664
   5187.12  59.6189
   5222.53  60.7941
   5258.18  61.9927
   5294.07  63.2151
   5330.20  64.4624
   5366.58  65.7346
   5403.21  67.0324
   5440.09  68.3564
   5477.23  69.7065
   5514.61  71.0860
   5552.25  72.4928
   5590.15  73.9272
   5628.31  75.3899
   5666.72  76.8820
   5705.40  78.4044
   5744.34  79.9571
   5783.55  81.5420
   5823.03  83.1583
   5862.77  84.8076
   5902.79  86.4902
   5943.08  88.2067
   5983.65  89.9604
   6024.49  91.7488
   6065.61  93.5711
   6107.01  95.4294
   6148.69  97.3267
   6190.66  99.2638
   6232.92  101.240
   6275.46  103.256
   6318.29  105.312
   6361.42  107.410
   6404.84  109.551
   6448.56  111.734
   6492.57  113.963
   6536.89  116.235
   6581.50  118.556
   6626.43  120.922
   6671.66  123.336
   6717.19  125.799
   6763.04  128.312
   6809.21  130.877
   6855.68  133.493
   6902.48  136.163
   6949.59  138.886
   6997.02  141.665
   7044.78  144.500
   7092.87  147.393
   7141.28  150.345
   7190.02  153.357
   7239.10  156.430
   7288.51  159.565
   7338.26  162.765
   7388.35  166.029
   7438.78  169.360
   7489.55  172.759
   7540.67  176.226
   7592.14  179.765
   7643.96  183.376
   7696.14  187.060
   7748.67  190.819
   7801.56  194.654
   7854.81  198.568
   7908.42  202.562
   7962.40  206.637
   8016.75  210.794
   8071.47  215.035
   8126.56  219.364
   8182.03  223.781
   8237.88  228.290
   8294.10  232.890
   8350.72  237.584
   8407.71  242.372
   8465.10  247.259
   8522.88  252.248
   8581.05  257.338
   8639.63  262.531
   8698.60  267.829
   8757.97  273.235
   8817.75  278.751
   8877.93  284.380
   8938.53  290.127
   8999.54  295.989
   9060.97  301.974
   9122.81  308.080
   9185.08  314.309
   9247.78  320.666
   9310.90  327.152
   9374.45  333.774
   9438.44  340.529
   9502.86  347.420
   9567.72  354.450
   9633.03  361.627
   9698.78  368.955
   9764.98  376.431
   9831.63  384.055
   9898.74  391.832
   9966.30  399.775
   10034.3  407.881
   10102.8  416.155
   10171.8  424.598
   10241.2  433.212
   10311.1  442.006
   10381.5  450.977
   10452.3  460.133
   10523.7  469.475
   10595.5  479.008
   10667.8  488.740
   10740.7  498.667
   10814.0  508.803
   10887.8  519.143
   10962.1  529.696
   11036.9  540.466
   11112.2  551.455
   11188.1  562.672
   11264.5  574.116
   11341.3  585.801
   11418.8  597.723
   11496.7  609.888
   11575.2  622.301
   11654.2  634.964
   11733.7  647.894
   11813.8  661.084
   11894.4  674.551
   11975.6  688.293
   12057.4  702.314
   12139.7  716.620
   12222.5  731.218
   12306.0  746.126
   12390.0  761.335
   12474.5  776.855
   12559.7  792.688
   12645.4  808.845
   12731.7  825.340
   12818.6  842.167
   12906.1  859.342
   12994.2  876.862
   13082.9  894.749
   13172.2  913.005
   13262.1  931.632
   13352.6  950.640
   13443.8  970.030
   13535.5  989.830
   13627.9  1010.03
   13720.9  1030.64
   13814.6  1051.67
   13908.9  1073.13
   14003.8  1095.04
   14099.4  1117.38
   14195.6  1140.19
   14292.5  1163.46
   14390.1  1187.21
   14488.3  1211.45
   14587.2  1236.17
   14686.8  1261.40
   14787.0  1287.14
   14887.9  1313.41
   14989.5  1340.22
   15091.9  1367.59
   15194.9  1395.54
   15298.6  1424.04
   15403.0  1453.13
   15508.1  1482.82
   15614.0  1513.11
   15720.6  1544.02
   15827.9  1575.56
   15935.9  1607.74
   16044.7  1640.57
   16154.2  1674.08
   16264.5  1708.26
   16375.5  1743.14
   16487.2  1778.74
   16599.8  1815.04
   16713.1  1852.10
   16827.2  1889.90
   16942.0  1928.48
   17057.6  1967.84
   17174.1  2008.00
   17291.3  2048.96
   17409.3  2090.75
   17528.2  2133.39
   17647.8  2176.87
   17768.2  2221.27
   17889.5  2266.55
   18011.6  2312.74
   18134.6  2359.86
   18258.4  2407.92
   18383.0  2456.97
   18508.5  2506.98
   18634.8  2558.02
   18762.0  2610.07
   18890.0  2663.17
   19019.0  2717.34
   19148.8  2772.56
   19279.5  2828.93
   19411.1  2886.39
   19543.6  2945.01
   19677.0  3004.79
   19811.3  3065.87
   19946.5  3128.44
   20082.6  3192.28
   20219.7  3257.07
   20357.7  3323.10
   20496.7  3390.43
   20636.6  3459.06
   20777.4  3529.01
   20919.3  3600.31
   21062.1  3672.95
   21205.8  3747.02
   21350.6  3822.49
   21496.3  3899.40
   21643.0  3977.77
   21790.7  4057.62
   21939.5  4139.01
   22089.2  4221.92
   22240.0  4306.41
   22391.8  4392.47
   22544.6  4480.15
   22698.5  4569.46
   22853.4  4660.42
   23009.4  4753.10
   23166.5  4847.47
   23324.6  4943.60
   23483.8  5041.48
   23644.1  5141.15
   23805.5  5242.65
   23968.0  5345.99
   24131.6  5451.22
   24296.3  5558.33
   24462.1  5667.38
   24629.1  5778.37
   24797.2  5891.33
   24966.4  6006.31
   25136.9  6123.30
   25308.4  6242.41
   25481.2  6363.58
   25655.1  6486.86
   25830.2  6612.30
   26006.5  6739.89
   26184.0  6869.72
   26362.7  7001.73
   26542.7  7136.01
   26723.9  7272.52
   26906.3  7411.36
   27089.9  7552.54
   27274.8  7696.05
   27461.0  7841.96
   27648.4  7990.23
   27837.1  8140.97
   28027.1  8294.16
   28218.4  8449.81
   28411.1  8607.97
   28605.0  8768.61
   28800.2  8931.88
   28996.8  9097.65
   29194.7  9266.03
   29394.0  9437.01
   29594.6  9610.60
   29796.6  9786.88
   30000.0  9965.76
 