 Ni Density=1., Angle=90.deg
 Photon Energy (eV), Atten Length (microns)
   1000.00  0.958107
   1006.83  0.944574
   1013.70  0.931231
   1020.62  0.937213
   1027.58  0.952151
   1034.60  0.967456
   1041.66  0.983275
   1048.77  0.999351
   1055.93  1.01586
   1063.13  1.03264
   1070.39  1.04970
   1077.70  1.06705
   1085.05  1.08469
   1092.46  1.10262
   1099.92  1.12085
   1107.42  1.13938
   1114.98  1.15822
   1122.59  1.17737
   1130.25  1.19683
   1137.97  1.21662
   1145.74  1.23672
   1153.56  1.25717
   1161.43  1.27795
   1169.36  1.29907
   1177.34  1.32054
   1185.38  1.34237
   1193.47  1.36456
   1201.61  1.38712
   1209.81  1.41005
   1218.07  1.43336
   1226.39  1.45706
   1234.76  1.48119
   1243.19  1.50579
   1251.67  1.53081
   1260.21  1.55636
   1268.82  1.58235
   1277.48  1.60888
   1286.20  1.63592
   1294.97  1.66342
   1303.81  1.69138
   1312.71  1.71981
   1321.67  1.74872
   1330.69  1.77811
   1339.78  1.80800
   1348.92  1.83840
   1358.13  1.86931
   1367.40  1.90073
   1376.73  1.93268
   1386.13  1.96516
   1395.59  1.99819
   1405.12  2.03178
   1414.71  2.06593
   1424.36  2.10066
   1434.08  2.13597
   1443.87  2.17188
   1453.73  2.20849
   1463.65  2.24574
   1473.64  2.28373
   1483.70  2.32249
   1493.83  2.36198
   1504.02  2.40302
   1514.29  2.44477
   1524.62  2.48734
   1535.03  2.53070
   1545.51  2.57480
   1556.06  2.61967
   1566.68  2.66531
   1577.37  2.71177
   1588.14  2.75903
   1598.98  2.80712
   1609.89  2.85606
   1620.88  2.90585
   1631.94  2.95652
   1643.08  3.00807
   1654.30  3.06051
   1665.59  3.11386
   1676.96  3.16813
   1688.41  3.22334
   1699.93  3.27952
   1711.53  3.33665
   1723.21  3.39478
   1734.98  3.45452
   1746.82  3.51541
   1758.74  3.57750
   1770.75  3.64080
   1782.83  3.70525
   1795.00  3.77100
   1807.25  3.83791
   1819.59  3.90601
   1832.01  3.97532
   1844.51  4.04586
   1857.10  4.11765
   1869.78  4.19071
   1882.54  4.26508
   1895.39  4.34078
   1908.33  4.41778
   1921.35  4.49614
   1934.47  4.57589
   1947.67  4.65706
   1960.97  4.73967
   1974.35  4.82379
   1987.83  4.90940
   2001.39  4.99602
   2015.06  5.08386
   2028.81  5.17360
   2042.66  5.26596
   2056.60  5.35997
   2070.64  5.45578
   2084.77  5.55332
   2099.00  5.65266
   2113.33  5.75386
   2127.75  5.85687
   2142.27  5.96178
   2156.90  6.06858
   2171.62  6.17747
   2186.44  6.28836
   2201.37  6.40122
   2216.39  6.51608
   2231.52  6.63302
   2246.75  6.75227
   2262.09  6.87367
   2277.53  6.99737
   2293.07  7.12335
   2308.72  7.25160
   2324.48  7.38214
   2340.35  7.51504
   2356.32  7.65049
   2372.40  7.78840
   2388.60  7.92880
   2404.90  8.07174
   2421.32  8.21733
   2437.84  8.36576
   2454.48  8.51685
   2471.24  8.67079
   2488.10  8.82752
   2505.09  8.98701
   2522.19  9.14936
   2539.40  9.31474
   2556.73  9.48344
   2574.18  9.65520
   2591.76  9.83004
   2609.45  10.0080
   2627.26  10.1894
   2645.19  10.3741
   2663.24  10.5621
   2681.42  10.7537
   2699.72  10.9487
   2718.15  11.1474
   2736.70  11.3497
   2755.38  11.5558
   2774.19  11.7656
   2793.13  11.9793
   2812.19  12.1971
   2831.39  12.4188
   2850.71  12.6446
   2870.17  12.8746
   2889.76  13.1088
   2909.48  13.3474
   2929.34  13.5903
   2949.34  13.8378
   2969.47  14.0898
   2989.74  14.3465
   3010.14  14.6079
   3030.69  14.8741
   3051.38  15.1453
   3072.20  15.4214
   3093.17  15.7028
   3114.29  15.9894
   3135.54  16.2813
   3156.94  16.5785
   3178.49  16.8813
   3200.19  17.1897
   3222.03  17.5038
   3244.02  17.8237
   3266.17  18.1494
   3288.46  18.4812
   3310.90  18.8192
   3333.50  19.1635
   3356.26  19.5142
   3379.17  19.8714
   3402.23  20.2353
   3425.45  20.6060
   3448.83  20.9835
   3472.37  21.3679
   3496.07  21.7594
   3519.94  22.1585
   3543.96  22.5648
   3568.15  22.9787
   3592.51  23.4002
   3617.03  23.8296
   3641.72  24.2671
   3666.57  24.7127
   3691.60  25.1667
   3716.80  25.6291
   3742.17  26.1001
   3767.71  26.5799
   3793.43  27.0685
   3819.32  27.5663
   3845.39  28.0732
   3871.63  28.5899
   3898.06  29.1162
   3924.67  29.6523
   3951.45  30.1982
   3978.43  30.7544
   4005.58  31.3213
   4032.92  31.8987
   4060.45  32.4870
   4088.16  33.0861
   4116.07  33.6966
   4144.16  34.3187
   4172.45  34.9524
   4200.93  35.5976
   4229.60  36.2548
   4258.47  36.9247
   4287.54  37.6073
   4316.80  38.3027
   4346.27  39.0115
   4375.93  39.7334
   4405.80  40.4687
   4435.87  41.2176
   4466.15  41.9812
   4496.63  42.7594
   4527.33  43.5521
   4558.23  44.3594
   4589.34  45.1817
   4620.67  46.0204
   4652.21  46.8748
   4683.96  47.7453
   4715.93  48.6323
   4748.12  49.5360
   4780.53  50.4571
   4813.16  51.3953
   4846.01  52.3513
   4879.09  53.3251
   4912.39  54.3181
   4945.92  55.3303
   4979.68  56.3617
   5013.67  57.4134
   5047.89  58.4847
   5082.34  59.5759
   5117.03  60.6874
   5151.96  61.8205
   5187.12  62.9759
   5222.53  64.1531
   5258.18  65.3537
   5294.07  66.5770
   5330.20  67.8238
   5366.58  69.0942
   5403.21  70.3893
   5440.09  71.7103
   5477.23  73.0560
   5514.61  74.4261
   5552.25  75.8218
   5590.15  77.2474
   5628.31  78.7017
   5666.72  80.1832
   5705.40  81.6922
   5744.34  83.2298
   5783.55  84.7981
   5823.03  86.3960
   5862.77  88.0260
   5902.79  89.6882
   5943.08  91.3825
   5983.65  93.1119
   6024.49  94.8740
   6065.61  96.6699
   6107.01  98.4998
   6148.69  100.367
   6190.66  102.272
   6232.92  104.214
   6275.46  106.194
   6318.29  108.212
   6361.42  110.272
   6404.84  112.371
   6448.56  114.512
   6492.57  116.697
   6536.89  118.924
   6581.50  121.196
   6626.43  123.512
   6671.66  125.876
   6717.19  128.286
   6763.04  130.744
   6809.21  133.253
   6855.68  135.811
   6902.48  138.422
   6949.59  141.083
   6997.02  143.800
   7044.78  146.572
   7092.87  149.399
   7141.28  152.285
   7190.02  155.227
   7239.10  158.233
   7288.51  161.297
   7338.26  164.425
   7388.35  167.616
   7438.78  170.871
   7489.55  174.197
   7540.67  177.589
   7592.14  181.053
   7643.96  184.586
   7696.14  188.194
   7748.67  191.877
   7801.56  195.633
   7854.81  199.472
   7908.42  203.387
   7962.40  207.390
   8016.75  211.474
   8071.47  215.644
   8126.56  219.903
   8182.03  224.247
   8237.88  228.684
   8294.10  233.209
   8350.72  30.4280
   8407.71  30.9420
   8465.10  31.4646
   8522.88  31.9961
   8581.05  32.5365
   8639.63  33.0890
   8698.60  33.6509
   8757.97  34.2241
   8817.75  34.8082
   8877.93  35.4030
   8938.53  36.0101
   8999.54  36.6277
   9060.97  37.2586
   9122.81  37.9008
   9185.08  38.5559
   9247.78  39.2240
   9310.90  39.9043
   9374.45  40.5986
   9438.44  41.3051
   9502.86  42.0261
   9567.72  42.7603
   9633.03  43.5090
   9698.78  44.2728
   9764.98  45.0502
   9831.63  45.8430
   9898.74  46.6497
   9966.30  47.4739
   10034.3  48.3138
   10102.8  49.1698
   10171.8  50.0429
   10241.2  50.9317
   10311.1  51.8395
   10381.5  52.7634
   10452.3  53.7061
   10523.7  54.6667
   10595.5  55.6455
   10667.8  56.6444
   10740.7  57.6611
   10814.0  58.6993
   10887.8  59.7564
   10962.1  60.8346
   11036.9  61.9337
   11112.2  63.0535
   11188.1  64.1964
   11264.5  65.3601
   11341.3  66.5481
   11418.8  67.7582
   11496.7  68.9920
   11575.2  70.2501
   11654.2  71.5316
   11733.7  72.8397
   11813.8  74.1716
   11894.4  75.5312
   11975.6  76.9164
   12057.4  78.3285
   12139.7  79.7683
   12222.5  81.2351
   12306.0  82.7331
   12390.0  84.2587
   12474.5  85.8150
   12559.7  87.4009
   12645.4  89.0176
   12731.7  90.6670
   12818.6  92.3470
   12906.1  94.0617
   12994.2  95.8081
   13082.9  97.5901
   13172.2  99.4072
   13262.1  101.259
   13352.6  103.149
   13443.8  105.073
   13535.5  107.038
   13627.9  109.040
   13720.9  111.081
   13814.6  113.162
   13908.9  115.284
   14003.8  117.449
   14099.4  119.655
   14195.6  121.905
   14292.5  124.199
   14390.1  126.538
   14488.3  128.925
   14587.2  131.356
   14686.8  133.837
   14787.0  136.365
   14887.9  138.944
   14989.5  141.574
   15091.9  144.256
   15194.9  146.991
   15298.6  149.778
   15403.0  152.623
   15508.1  155.523
   15614.0  158.481
   15720.6  161.496
   15827.9  164.571
   15935.9  167.707
   16044.7  170.903
   16154.2  174.166
   16264.5  177.490
   16375.5  180.882
   16487.2  184.340
   16599.8  187.866
   16713.1  191.464
   16827.2  195.130
   16942.0  198.872
   17057.6  202.686
   17174.1  206.576
   17291.3  210.543
   17409.3  214.588
   17528.2  218.715
   17647.8  222.920
   17768.2  227.213
   17889.5  231.590
   18011.6  236.053
   18134.6  240.604
   18258.4  245.244
   18383.0  249.979
   18508.5  254.805
   18634.8  259.730
   18762.0  264.752
   18890.0  269.874
   19019.0  275.098
   19148.8  280.423
   19279.5  285.858
   19411.1  291.397
   19543.6  297.048
   19677.0  302.810
   19811.3  308.687
   19946.5  314.683
   20082.6  320.795
   20219.7  327.033
   20357.7  333.392
   20496.7  339.880
   20636.6  346.497
   20777.4  353.244
   20919.3  360.127
   21062.1  367.144
   21205.8  374.304
   21350.6  381.604
   21496.3  389.051
   21643.0  396.645
   21790.7  404.389
   21939.5  412.291
   22089.2  420.347
   22240.0  428.567
   22391.8  436.949
   22544.6  445.498
   22698.5  454.218
   22853.4  463.108
   23009.4  472.180
   23166.5  481.429
   23324.6  490.865
   23483.8  500.487
   23644.1  510.300
   23805.5  520.310
   23968.0  530.516
   24131.6  540.932
   24296.3  551.551
   24462.1  562.383
   24629.1  573.428
   24797.2  584.693
   24966.4  596.185
   25136.9  607.900
   25308.4  619.857
   25481.2  632.047
   25655.1  644.480
   25830.2  657.161
   26006.5  670.093
   26184.0  683.287
   26362.7  696.739
   26542.7  710.461
   26723.9  724.452
   26906.3  738.722
   27089.9  753.277
   27274.8  768.117
   27461.0  783.259
   27648.4  798.695
   27837.1  814.442
   28027.1  830.501
   28218.4  846.877
   28411.1  863.579
   28605.0  880.607
   28800.2  897.982
   28996.8  915.693
   29194.7  933.761
   29394.0  952.186
   29594.6  970.974
   29796.6  990.136
   30000.0  1009.67
