 Cr Density=1., Angle=90.deg
 Photon Energy (eV), Atten Length (microns)
   1000.00  1.34617
   1006.83  1.36927
   1013.70  1.39277
   1020.62  1.41622
   1027.58  1.43985
   1034.60  1.46394
   1041.66  1.48857
   1048.77  1.51361
   1055.93  1.53930
   1063.13  1.56543
   1070.39  1.59202
   1077.70  1.61905
   1085.05  1.64655
   1092.46  1.67451
   1099.92  1.70295
   1107.42  1.73187
   1114.98  1.76129
   1122.59  1.79120
   1130.25  1.82161
   1137.97  1.85254
   1145.74  1.88399
   1153.56  1.91598
   1161.43  1.94852
   1169.36  1.98161
   1177.34  2.01527
   1185.38  2.04950
   1193.47  2.08431
   1201.61  2.11971
   1209.81  2.15571
   1218.07  2.19232
   1226.39  2.22956
   1234.76  2.26749
   1243.19  2.30619
   1251.67  2.34555
   1260.21  2.38580
   1268.82  2.42674
   1277.48  2.46859
   1286.20  2.51127
   1294.97  2.55469
   1303.81  2.59883
   1312.71  2.64375
   1321.67  2.68943
   1330.69  2.73590
   1339.78  2.78319
   1348.92  2.83130
   1358.13  2.88025
   1367.40  2.93005
   1376.73  2.98071
   1386.13  3.03224
   1395.59  3.08465
   1405.12  3.13796
   1414.71  3.19218
   1424.36  3.24734
   1434.08  3.30349
   1443.87  3.36060
   1453.73  3.41889
   1463.65  3.47824
   1473.64  3.53878
   1483.70  3.60062
   1493.83  3.66366
   1504.02  3.72937
   1514.29  3.79627
   1524.62  3.86454
   1535.03  3.93411
   1545.51  4.00494
   1556.06  4.07705
   1566.68  4.15046
   1577.37  4.22520
   1588.14  4.30129
   1598.98  4.37875
   1609.89  4.45761
   1620.88  4.53788
   1631.94  4.61960
   1643.08  4.70279
   1654.30  4.78743
   1665.59  4.87361
   1676.96  4.96133
   1688.41  5.05064
   1699.93  5.14156
   1711.53  5.23413
   1723.21  5.32835
   1734.98  5.42541
   1746.82  5.52444
   1758.74  5.62550
   1770.75  5.72863
   1782.83  5.83371
   1795.00  5.94099
   1807.25  6.05026
   1819.59  6.16157
   1832.01  6.27493
   1844.51  6.39039
   1857.10  6.50798
   1869.78  6.62772
   1882.54  6.74972
   1895.39  6.87397
   1908.33  7.00042
   1921.35  7.12917
   1934.47  7.26029
   1947.67  7.39384
   1960.97  7.52984
   1974.35  7.66847
   1987.83  7.80965
   2001.39  7.95245
   2015.06  8.09725
   2028.81  8.24539
   2042.66  8.39825
   2056.60  8.55394
   2070.64  8.71278
   2084.77  8.87461
   2099.00  9.03956
   2113.33  9.20768
   2127.75  9.37893
   2142.27  9.55337
   2156.90  9.73106
   2171.62  9.91249
   2186.44  10.0974
   2201.37  10.2858
   2216.39  10.4777
   2231.52  10.6733
   2246.75  10.8726
   2262.09  11.0757
   2277.53  11.2827
   2293.07  11.4937
   2308.72  11.7087
   2324.48  11.9280
   2340.35  12.1513
   2356.32  12.3789
   2372.40  12.6108
   2388.60  12.8472
   2404.90  13.0882
   2421.32  13.3337
   2437.84  13.5839
   2454.48  13.8388
   2471.24  14.0988
   2488.10  14.3637
   2505.09  14.6336
   2522.19  14.9087
   2539.40  15.1889
   2556.73  15.4746
   2574.18  15.7657
   2591.76  16.0625
   2609.45  16.3648
   2627.26  16.6730
   2645.19  16.9869
   2663.24  17.3069
   2681.42  17.6330
   2699.72  17.9654
   2718.15  18.3041
   2736.70  18.6492
   2755.38  19.0009
   2774.19  19.3594
   2793.13  19.7246
   2812.19  20.0969
   2831.39  20.4761
   2850.71  20.8627
   2870.17  21.2568
   2889.76  21.6582
   2909.48  22.0673
   2929.34  22.4841
   2949.34  22.9088
   2969.47  23.3415
   2989.74  23.7824
   3010.14  24.2317
   3030.69  24.6896
   3051.38  25.1563
   3072.20  25.6319
   3093.17  26.1164
   3114.29  26.6102
   3135.54  27.1133
   3156.94  27.6259
   3178.49  28.1483
   3200.19  28.6806
   3222.03  29.2229
   3244.02  29.7756
   3266.17  30.3387
   3288.46  30.9124
   3310.90  31.4968
   3333.50  32.0923
   3356.26  32.6992
   3379.17  33.3176
   3402.23  33.9478
   3425.45  34.5898
   3448.83  35.2440
   3472.37  35.9105
   3496.07  36.5896
   3519.94  37.2811
   3543.96  37.9855
   3568.15  38.7034
   3592.51  39.4349
   3617.03  40.1801
   3641.72  40.9392
   3666.57  41.7126
   3691.60  42.5009
   3716.80  43.3042
   3742.17  44.1217
   3767.71  44.9540
   3793.43  45.8023
   3819.32  46.6672
   3845.39  47.5484
   3871.63  48.4456
   3898.06  49.3595
   3924.67  50.2908
   3951.45  51.2397
   3978.43  52.2062
   4005.58  53.1897
   4032.92  54.1918
   4060.45  55.2129
   4088.16  56.2532
   4116.07  57.3126
   4144.16  58.3914
   4172.45  59.4905
   4200.93  60.6092
   4229.60  61.7490
   4258.47  62.9097
   4287.54  64.0919
   4316.80  65.2962
   4346.27  66.5229
   4375.93  67.7727
   4405.80  69.0458
   4435.87  70.3427
   4466.15  71.6629
   4496.63  73.0072
   4527.33  74.3757
   4558.23  75.7675
   4589.34  77.1854
   4620.67  78.6305
   4652.21  80.1027
   4683.96  81.6013
   4715.93  83.1276
   4748.12  84.6820
   4780.53  86.2640
   4813.16  87.8756
   4846.01  89.5164
   4879.09  91.1875
   4912.39  92.8883
   4945.92  94.6192
   4979.68  96.3821
   5013.67  98.1768
   5047.89  100.005
   5082.34  101.864
   5117.03  103.756
   5151.96  105.684
   5187.12  107.646
   5222.53  109.645
   5258.18  111.677
   5294.07  113.748
   5330.20  115.854
   5366.58  117.999
   5403.21  120.182
   5440.09  122.403
   5477.23  124.666
   5514.61  126.967
   5552.25  129.310
   5590.15  131.694
   5628.31  134.121
   5666.72  136.592
   5705.40  139.104
   5744.34  141.662
   5783.55  144.263
   5823.03  146.912
   5862.77  149.607
   5902.79  152.350
   5943.08  155.142
   5983.65  157.986
   6024.49  19.5231
   6065.61  19.8499
   6107.01  20.1821
   6148.69  20.5208
   6190.66  20.8661
   6232.92  21.2174
   6275.46  21.5764
   6318.29  21.9415
   6361.42  22.3144
   6404.84  22.6940
   6448.56  23.0810
   6492.57  23.4758
   6536.89  23.8775
   6581.50  24.2880
   6626.43  24.7055
   6671.66  25.1317
   6717.19  25.5659
   6763.04  26.0082
   6809.21  26.4593
   6855.68  26.9183
   6902.48  27.3875
   6949.59  27.8649
   6997.02  28.3522
   7044.78  28.8489
   7092.87  29.3548
   7141.28  29.8710
   7190.02  30.3962
   7239.10  30.9324
   7288.51  31.4784
   7338.26  32.0352
   7388.35  32.6028
   7438.78  33.1811
   7489.55  33.7718
   7540.67  34.3730
   7592.14  34.9863
   7643.96  35.6109
   7696.14  36.2479
   7748.67  36.8978
   7801.56  37.5596
   7854.81  38.2351
   7908.42  38.9227
   7962.40  39.6245
   8016.75  40.3394
   8071.47  41.0681
   8126.56  41.8113
   8182.03  42.5680
   8237.88  43.3411
   8294.10  44.1282
   8350.72  44.9310
   8407.71  45.7490
   8465.10  46.5829
   8522.88  47.4345
   8581.05  48.3016
   8639.63  49.1867
   8698.60  50.0882
   8757.97  51.0074
   8817.75  51.9442
   8877.93  52.8991
   8938.53  53.8739
   8999.54  54.8666
   9060.97  55.8798
   9122.81  56.9119
   9185.08  57.9649
   9247.78  59.0392
   9310.90  60.1337
   9374.45  61.2503
   9438.44  62.3877
   9502.86  63.5475
   9567.72  64.7290
   9633.03  65.9343
   9698.78  67.1640
   9764.98  68.4170
   9831.63  69.6974
   9898.74  71.0016
   9966.30  72.3319
   10034.3  73.6877
   10102.8  75.0698
   10171.8  76.4794
   10241.2  77.9155
   10311.1  79.3821
   10381.5  80.8761
   10452.3  82.4004
   10523.7  83.9543
   10595.5  85.5385
   10667.8  87.1548
   10740.7  88.8015
   10814.0  90.4826
   10887.8  92.1957
   10962.1  93.9433
   11036.9  95.7255
   11112.2  97.5422
   11188.1  99.3959
   11264.5  101.285
   11341.3  103.213
   11418.8  105.179
   11496.7  107.183
   11575.2  109.227
   11654.2  111.311
   11733.7  113.438
   11813.8  115.605
   11894.4  117.817
   11975.6  120.072
   12057.4  122.371
   12139.7  124.716
   12222.5  127.107
   12306.0  129.548
   12390.0  132.036
   12474.5  134.573
   12559.7  137.160
   12645.4  139.799
   12731.7  142.491
   12818.6  145.235
   12906.1  148.036
   12994.2  150.890
   13082.9  153.803
   13172.2  156.774
   13262.1  159.803
   13352.6  162.894
   13443.8  166.044
   13535.5  169.260
   13627.9  172.538
   13720.9  175.882
   13814.6  179.292
   13908.9  182.769
   14003.8  186.318
   14099.4  189.936
   14195.6  193.628
   14292.5  197.392
   14390.1  201.232
   14488.3  205.150
   14587.2  209.144
   14686.8  213.219
   14787.0  217.372
   14887.9  221.612
   14989.5  225.936
   15091.9  230.347
   15194.9  234.846
   15298.6  239.434
   15403.0  244.117
   15508.1  248.891
   15614.0  253.762
   15720.6  258.730
   15827.9  263.797
   15935.9  268.966
   16044.7  274.237
   16154.2  279.615
   16264.5  285.099
   16375.5  290.695
   16487.2  296.403
   16599.8  302.224
   16713.1  308.164
   16827.2  314.221
   16942.0  320.402
   17057.6  326.705
   17174.1  333.136
   17291.3  339.695
   17409.3  346.384
   17528.2  353.209
   17647.8  360.168
   17768.2  367.271
   17889.5  374.515
   18011.6  381.903
   18134.6  389.441
   18258.4  397.127
   18383.0  404.971
   18508.5  412.970
   18634.8  421.132
   18762.0  429.457
   18890.0  437.949
   19019.0  446.612
   19148.8  455.446
   19279.5  464.462
   19411.1  473.655
   19543.6  483.034
   19677.0  492.600
   19811.3  502.358
   19946.5  512.315
   20082.6  522.469
   20219.7  532.831
   20357.7  543.399
   20496.7  554.182
   20636.6  565.181
   20777.4  576.399
   20919.3  587.846
   21062.1  599.516
   21205.8  611.427
   21350.6  623.573
   21496.3  635.963
   21643.0  648.603
   21790.7  661.493
   21939.5  674.647
   22089.2  688.061
   22240.0  701.749
   22391.8  715.708
   22544.6  729.947
   22698.5  744.473
   22853.4  759.285
   23009.4  774.401
   23166.5  789.815
   23324.6  805.541
   23483.8  821.580
   23644.1  837.940
   23805.5  854.628
   23968.0  871.647
   24131.6  889.015
   24296.3  906.723
   24462.1  924.789
   24629.1  943.212
   24797.2  962.002
   24966.4  981.171
   25136.9  1000.72
   25308.4  1020.66
   25481.2  1041.00
   25655.1  1061.75
   25830.2  1082.91
   26006.5  1104.49
   26184.0  1126.51
   26362.7  1148.96
   26542.7  1171.86
   26723.9  1195.20
   26906.3  1219.02
   27089.9  1243.31
   27274.8  1268.08
   27461.0  1293.35
   27648.4  1319.11
   27837.1  1345.39
   28027.1  1372.19
   28218.4  1399.52
   28411.1  1427.39
   28605.0  1455.80
   28800.2  1484.79
   28996.8  1514.34
   29194.7  1544.48
   29394.0  1575.22
   29594.6  1606.55
   29796.6  1638.51
   30000.0  1671.09
