 W Density=1., Angle=90.deg
 Photon Energy (eV), Atten Length (microns)
   1000.00  2.52950
   1006.83  2.56269
   1013.70  2.59633
   1020.62  2.63108
   1027.58  2.66662
   1034.60  2.70273
   1041.66  2.73951
   1048.77  2.77680
   1055.93  2.81488
   1063.13  2.85350
   1070.39  2.89266
   1077.70  2.93238
   1085.05  2.97265
   1092.46  3.01347
   1099.92  3.05486
   1107.42  3.09684
   1114.98  3.13939
   1122.59  3.18255
   1130.25  3.22631
   1137.97  3.27068
   1145.74  3.31567
   1153.56  3.36128
   1161.43  3.40751
   1169.36  3.45438
   1177.34  3.50191
   1185.38  3.55011
   1193.47  3.59897
   1201.61  3.64850
   1209.81  3.69871
   1218.07  3.74964
   1226.39  3.80127
   1234.76  3.85393
   1243.19  3.90784
   1251.67  3.96252
   1260.21  4.01890
   1268.82  4.07607
   1277.48  4.13488
   1286.20  4.19495
   1294.97  4.25589
   1303.81  4.31768
   1312.71  4.38037
   1321.67  4.44399
   1330.69  4.50855
   1339.78  4.57409
   1348.92  4.64063
   1358.13  4.70813
   1367.40  4.77661
   1376.73  4.84609
   1386.13  4.91663
   1395.59  4.98821
   1405.12  5.06082
   1414.71  5.13448
   1424.36  5.20921
   1434.08  5.28506
   1443.87  5.36200
   1453.73  5.44019
   1463.65  5.51955
   1473.64  5.60020
   1483.70  5.68221
   1493.83  5.76548
   1504.02  5.85073
   1514.29  5.93725
   1524.62  6.02515
   1535.03  6.11440
   1545.51  6.20496
   1556.06  6.29687
   1566.68  6.39013
   1577.37  6.48487
   1588.14  6.58100
   1598.98  6.67862
   1609.89  6.77770
   1620.88  6.87825
   1631.94  6.98029
   1643.08  7.08384
   1654.30  7.18908
   1665.59  7.29591
   1676.96  7.40432
   1688.41  7.51434
   1699.93  7.62599
   1711.53  7.73926
   1723.21  7.85420
   1734.98  7.97212
   1746.82  8.09202
   1758.74  8.21390
   1770.75  8.33779
   1782.83  8.46355
   1795.00  8.59121
   1807.25  8.72080
   1819.59  2.91673
   1832.01  2.95612
   1844.51  2.99604
   1857.10  3.03650
   1869.78  3.07750
   1882.54  2.10990
   1895.39  2.14506
   1908.33  2.18081
   1921.35  2.21715
   1934.47  2.25409
   1947.67  2.29166
   1960.97  2.32984
   1974.35  2.36868
   1987.83  2.40816
   2001.39  2.44828
   2015.06  2.48877
   2028.81  2.53001
   2042.66  2.57223
   2056.60  2.61514
   2070.64  2.65875
   2084.77  2.70309
   2099.00  2.74818
   2113.33  2.79399
   2127.75  2.84056
   2142.27  2.88793
   2156.90  2.93612
   2171.62  2.98510
   2186.44  3.03488
   2201.37  3.08549
   2216.39  3.13694
   2231.52  3.18926
   2246.75  3.24246
   2262.09  3.29658
   2277.53  3.35160
   2293.07  2.92582
   2308.72  2.97765
   2324.48  3.03040
   2340.35  3.08409
   2356.32  3.13876
   2372.40  3.19438
   2388.60  3.25092
   2404.90  3.30849
   2421.32  3.36711
   2437.84  3.42677
   2454.48  3.48748
   2471.24  3.54921
   2488.10  3.61199
   2505.09  3.67595
   2522.19  3.74106
   2539.40  3.80727
   2556.73  3.87463
   2574.18  3.94319
   2591.76  3.75445
   2609.45  3.81901
   2627.26  3.88468
   2645.19  3.95140
   2663.24  4.01925
   2681.42  4.08820
   2699.72  4.15835
   2718.15  4.22975
   2736.70  4.30236
   2755.38  4.37622
   2774.19  4.45132
   2793.13  4.52771
   2812.19  4.60541
   2831.39  4.48103
   2850.71  4.55394
   2870.17  4.62804
   2889.76  4.70351
   2909.48  4.78028
   2929.34  4.85837
   2949.34  4.93774
   2969.47  5.01868
   2989.74  5.10098
   3010.14  5.18468
   3030.69  5.26977
   3051.38  5.35652
   3072.20  5.44474
   3093.17  5.53465
   3114.29  5.62609
   3135.54  5.71913
   3156.94  5.81373
   3178.49  5.90996
   3200.19  6.00795
   3222.03  6.10778
   3244.02  6.20927
   3266.17  6.31245
   3288.46  6.41748
   3310.90  6.52437
   3333.50  6.63316
   3356.26  6.74380
   3379.17  6.85640
   3402.23  6.97090
   3425.45  7.08761
   3448.83  7.20631
   3472.37  7.32691
   3496.07  7.44957
   3519.94  7.57474
   3543.96  7.70202
   3568.15  7.83145
   3592.51  7.96308
   3617.03  8.09703
   3641.72  8.23332
   3666.57  8.37207
   3691.60  8.51316
   3716.80  8.65667
   3742.17  8.80277
   3767.71  8.95150
   3793.43  9.10282
   3819.32  9.25673
   3845.39  9.41329
   3871.63  9.57253
   3898.06  9.73462
   3924.67  9.89948
   3951.45  10.0675
   3978.43  10.2383
   4005.58  10.4122
   4032.92  10.5891
   4060.45  10.7690
   4088.16  10.9521
   4116.07  11.1386
   4144.16  11.3282
   4172.45  11.5211
   4200.93  11.7174
   4229.60  11.9171
   4258.47  12.1204
   4287.54  12.3273
   4316.80  12.5378
   4346.27  12.7520
   4375.93  12.9700
   4405.80  13.1917
   4435.87  13.4174
   4466.15  13.6470
   4496.63  13.8807
   4527.33  14.1185
   4558.23  14.3606
   4589.34  14.6068
   4620.67  14.8575
   4652.21  15.1124
   4683.96  15.3720
   4715.93  15.6361
   4748.12  15.9048
   4780.53  16.1783
   4813.16  16.4566
   4846.01  16.7399
   4879.09  17.0282
   4912.39  17.3216
   4945.92  17.6202
   4979.68  17.9240
   5013.67  18.2330
   5047.89  18.5476
   5082.34  18.8678
   5117.03  19.1936
   5151.96  19.5251
   5187.12  19.8628
   5222.53  20.2064
   5258.18  20.5560
   5294.07  20.9117
   5330.20  21.2739
   5366.58  21.6424
   5403.21  22.0175
   5440.09  22.3991
   5477.23  22.7877
   5514.61  23.1830
   5552.25  23.5853
   5590.15  23.9948
   5628.31  24.4119
   5666.72  24.8362
   5705.40  25.2678
   5744.34  25.7073
   5783.55  26.1545
   5823.03  26.6099
   5862.77  27.0733
   5902.79  27.5449
   5943.08  28.0246
   5983.65  28.5133
   6024.49  29.0105
   6065.61  29.5164
   6107.01  30.0312
   6148.69  30.5558
   6190.66  31.0896
   6232.92  31.6327
   6275.46  32.1854
   6318.29  32.7486
   6361.42  33.3215
   6404.84  33.9044
   6448.56  34.4979
   6492.57  35.1024
   6536.89  35.7174
   6581.50  36.3431
   6626.43  36.9800
   6671.66  37.6282
   6717.19  38.2886
   6763.04  38.9610
   6809.21  39.6452
   6855.68  40.3415
   6902.48  41.0506
   6949.59  41.7723
   6997.02  42.5067
   7044.78  43.2540
   7092.87  44.0150
   7141.28  44.7895
   7190.02  45.5783
   7239.10  46.3811
   7288.51  47.1993
   7338.26  48.0317
   7388.35  48.8785
   7438.78  49.7410
   7489.55  50.6199
   7540.67  51.5136
   7592.14  52.4223
   7643.96  53.3487
   7696.14  54.2928
   7748.67  55.2535
   7801.56  56.2311
   7854.81  57.2258
   7908.42  58.2380
   7962.40  59.2701
   8016.75  60.3207
   8071.47  61.3912
   8126.56  62.4808
   8182.03  63.5898
   8237.88  64.7187
   8294.10  65.8683
   8350.72  67.0387
   8407.71  68.2314
   8465.10  69.4454
   8522.88  70.6814
   8581.05  71.9397
   8639.63  73.2207
   8698.60  74.5247
   8757.97  75.8518
   8817.75  77.2035
   8877.93  78.5802
   8938.53  79.9838
   8999.54  81.4136
   9060.97  82.8686
   9122.81  84.3496
   9185.08  85.8608
   9247.78  87.3997
   9310.90  88.9638
   9374.45  90.5560
   9438.44  92.1809
   9502.86  93.8348
   9567.72  95.5180
   9633.03  97.2317
   9698.78  98.9767
   9764.98  100.740
   9831.63  102.509
   9898.74  104.309
   9966.30  106.137
   10034.3  107.997
   10102.8  109.889
   10171.8  111.815
   10241.2  44.1852
   10311.1  45.0397
   10381.5  45.9107
   10452.3  46.7987
   10523.7  47.7040
   10595.5  48.6266
   10667.8  49.5669
   10740.7  50.5254
   10814.0  51.5026
   10887.8  52.4987
   10962.1  53.5141
   11036.9  54.5491
   11112.2  55.6041
   11188.1  56.6792
   11264.5  57.7753
   11341.3  58.8929
   11418.8  60.0321
   11496.7  61.1929
   11575.2  44.5332
   11654.2  45.3534
   11733.7  46.1883
   11813.8  47.0386
   11894.4  47.9051
   11975.6  48.7877
   12057.4  49.6864
   12139.7  44.0888
   12222.5  44.8507
   12306.0  45.6257
   12390.0  46.4141
   12474.5  47.2182
   12559.7  48.0362
   12645.4  48.8700
   12731.7  49.7195
   12818.6  50.5843
   12906.1  51.4661
   12994.2  52.3632
   13082.9  53.2782
   13172.2  54.2096
   13262.1  55.1584
   13352.6  56.1248
   13443.8  57.1085
   13535.5  58.1119
   13627.9  59.1328
   13720.9  60.1738
   13814.6  61.2338
   13908.9  62.3134
   14003.8  63.4133
   14099.4  64.5330
   14195.6  65.6747
   14292.5  66.8367
   14390.1  68.0212
   14488.3  69.2273
   14587.2  70.4558
   14686.8  71.7076
   14787.0  72.9814
   14887.9  74.2811
   14989.5  75.6039
   15091.9  76.9516
   15194.9  78.3243
   15298.6  79.7222
   15403.0  81.1473
   15508.1  82.5979
   15614.0  84.0766
   15720.6  85.5819
   15827.9  87.1159
   15935.9  88.6785
   16044.7  90.2699
   16154.2  91.8921
   16264.5  93.5433
   16375.5  95.2263
   16487.2  96.9399
   16599.8  98.6858
   16713.1  100.465
   16827.2  102.277
   16942.0  104.123
   17057.6  106.002
   17174.1  107.918
   17291.3  109.869
   17409.3  111.857
   17528.2  113.883
   17647.8  115.945
   17768.2  118.047
   17889.5  120.187
   18011.6  122.367
   18134.6  124.589
   18258.4  126.852
   18383.0  129.158
   18508.5  131.505
   18634.8  133.899
   18762.0  136.335
   18890.0  138.818
   19019.0  141.347
   19148.8  143.923
   19279.5  146.548
   19411.1  149.222
   19543.6  151.946
   19677.0  154.720
   19811.3  157.547
   19946.5  160.426
   20082.6  163.360
   20219.7  166.349
   20357.7  169.392
   20496.7  172.494
   20636.6  175.653
   20777.4  178.871
   20919.3  182.151
   21062.1  185.490
   21205.8  188.894
   21350.6  192.360
   21496.3  195.891
   21643.0  199.488
   21790.7  203.153
   21939.5  206.886
   22089.2  210.688
   22240.0  214.563
   22391.8  218.509
   22544.6  222.530
   22698.5  226.625
   22853.4  230.797
   23009.4  235.049
   23166.5  239.378
   23324.6  243.790
   23483.8  248.283
   23644.1  252.860
   23805.5  257.523
   23968.0  262.273
   24131.6  267.113
   24296.3  272.043
   24462.1  277.065
   24629.1  282.180
   24797.2  287.392
   24966.4  292.702
   25136.9  298.110
   25308.4  303.621
   25481.2  309.233
   25655.1  314.950
   25830.2  320.774
   26006.5  326.708
   26184.0  332.753
   26362.7  338.909
   26542.7  345.182
   26723.9  351.570
   26906.3  358.079
   27089.9  364.709
   27274.8  371.464
   27461.0  378.345
   27648.4  385.354
   27837.1  392.494
   28027.1  399.766
   28218.4  407.176
   28411.1  414.724
   28605.0  422.412
   28800.2  430.244
   28996.8  438.219
   29194.7  446.347
   29394.0  454.625
   29594.6  463.059
   29796.6  471.651
   30000.0  480.400
